0.000000e+00
0.000000e+00
2.233887e-03
4.516602e-03
6.766968e-03
9.113159e-03
1.150055e-02
1.395935e-02
1.655426e-02
1.926544e-02
1.981293e-02
2.253784e-02
2.541351e-02
2.811340e-02
3.089569e-02
3.131927e-02
3.158813e-02
3.184326e-02
3.191132e-02
3.415100e-02
3.621857e-02
3.824188e-02
4.009735e-02
3.986023e-02
3.955627e-02
3.947235e-02
4.181152e-02
4.422974e-02
4.674133e-02
4.712494e-02
4.754608e-02
4.802338e-02
4.872711e-02
5.150543e-02
5.440155e-02
5.692535e-02
5.932404e-02
5.938873e-02
5.938995e-02
5.939087e-02
5.932770e-02
6.145966e-02
6.109619e-02
6.077240e-02
6.036133e-02
6.021484e-02
6.022949e-02
6.031036e-02
6.040680e-02
6.047394e-02
6.050873e-02
6.070831e-02
6.109924e-02
6.146881e-02
6.416534e-02
6.658234e-02
6.882721e-02
7.107086e-02
7.334900e-02
7.352173e-02
7.382324e-02
7.411102e-02
7.417267e-02
7.419586e-02
7.411285e-02
7.416443e-02
7.429565e-02
7.434906e-02
7.441193e-02
7.427643e-02
7.399078e-02
7.374573e-02
7.367889e-02
7.368103e-02
7.378082e-02
7.599426e-02
7.815918e-02
8.034393e-02
8.264648e-02
8.516907e-02
8.565582e-02
8.625305e-02
8.678802e-02
8.724701e-02
8.756989e-02
8.798553e-02
8.830292e-02
8.847168e-02
8.849426e-02
8.830505e-02
8.784943e-02
8.727356e-02
8.901001e-02
9.087769e-02
9.058014e-02
9.025299e-02
9.009949e-02
9.228149e-02
9.480988e-02
9.754730e-02
1.005478e-01
1.013324e-01
1.020911e-01
1.029315e-01
1.035962e-01
1.043671e-01
1.048871e-01
1.052145e-01
1.051056e-01
1.047025e-01
1.040091e-01
1.032193e-01
1.047278e-01
1.062033e-01
1.077878e-01
1.071524e-01
1.067703e-01
1.066821e-01
1.070755e-01
1.100385e-01
1.133582e-01
1.165860e-01
1.175696e-01
1.185239e-01
1.194662e-01
1.226071e-01
1.256021e-01
1.282910e-01
1.304333e-01
1.322610e-01
1.315268e-01
1.309387e-01
1.304257e-01
1.321353e-01
1.338495e-01
1.356137e-01
1.352115e-01
1.350397e-01
1.354175e-01
1.361710e-01
1.372958e-01
1.404221e-01
1.434415e-01
1.463370e-01
1.492960e-01
1.522903e-01
1.551703e-01
1.579510e-01
1.603143e-01
1.623550e-01
1.640488e-01
1.659897e-01
1.658578e-01
1.657666e-01
1.656860e-01
1.654510e-01
1.652768e-01
1.651038e-01
1.652243e-01
1.656143e-01
1.662616e-01
1.688983e-01
1.713742e-01
1.737567e-01
1.761984e-01
1.788199e-01
1.814438e-01
1.842294e-01
1.868475e-01
1.893301e-01
1.914954e-01
1.939554e-01
1.965707e-01
1.970398e-01
1.974106e-01
1.975977e-01
1.977600e-01
1.999609e-01
2.023230e-01
2.024094e-01
2.026825e-01
2.026544e-01
2.046732e-01
2.067178e-01
2.089279e-01
2.112769e-01
2.136658e-01
2.162393e-01
2.188269e-01
2.214343e-01
2.239447e-01
2.267969e-01
2.298651e-01
2.329718e-01
2.336649e-01
2.341245e-01
2.346240e-01
2.369952e-01
2.394720e-01
2.417429e-01
2.440805e-01
2.460733e-01
2.455380e-01
2.451117e-01
2.471429e-01
2.494339e-01
2.516360e-01
2.542130e-01
2.566754e-01
2.570358e-01
2.573401e-01
2.604071e-01
2.636804e-01
2.667734e-01
2.697653e-01
2.724442e-01
2.729065e-01
2.728931e-01
2.754440e-01
2.778305e-01
2.802563e-01
2.822470e-01
2.839294e-01
2.834735e-01
2.831329e-01
2.833054e-01
2.832819e-01
2.836267e-01
2.837592e-01
2.839224e-01
2.839594e-01
2.843130e-01
2.849960e-01
2.876978e-01
2.903369e-01
2.925223e-01
2.949017e-01
2.969635e-01
2.994162e-01
3.019489e-01
3.046735e-01
3.071255e-01
3.092395e-01
3.093826e-01
3.095874e-01
3.103308e-01
3.106940e-01
3.113492e-01
3.116046e-01
3.115988e-01
3.112561e-01
3.111136e-01
3.114133e-01
3.113025e-01
3.112009e-01
3.127734e-01
3.146927e-01
3.163110e-01
3.184454e-01
3.208649e-01
3.214691e-01
3.219333e-01
3.244751e-01
3.273572e-01
3.279306e-01
3.291019e-01
3.297784e-01
3.306360e-01
3.310699e-01
3.312784e-01
3.309586e-01
3.306299e-01
3.304996e-01
3.299698e-01
3.294711e-01
3.283139e-01
3.299384e-01
3.313867e-01
3.332468e-01
3.354733e-01
3.359674e-01
3.365216e-01
3.370935e-01
3.380124e-01
3.389999e-01
3.405054e-01
3.414590e-01
3.424274e-01
3.428693e-01
3.430109e-01
3.425424e-01
3.420807e-01
3.416257e-01
3.407608e-01
3.398303e-01
3.383966e-01
3.375217e-01
3.365289e-01
3.383289e-01
3.405170e-01
3.410477e-01
3.416281e-01
3.422787e-01
3.432925e-01
3.444562e-01
3.484424e-01
3.519168e-01
3.551526e-01
3.558118e-01
3.560959e-01
3.558447e-01
3.555621e-01
3.575241e-01
3.591653e-01
3.604654e-01
3.589890e-01
3.580316e-01
3.572736e-01
3.568912e-01
3.569571e-01
3.575897e-01
3.580688e-01
3.585010e-01
3.592441e-01
3.602707e-01
3.639795e-01
3.673148e-01
3.703622e-01
3.731842e-01
3.755698e-01
3.774854e-01
3.796216e-01
3.819186e-01
3.840509e-01
3.858051e-01
3.871884e-01
3.867371e-01
3.865030e-01
3.866101e-01
3.870428e-01
3.879156e-01
3.884036e-01
3.908890e-01
3.934775e-01
3.962671e-01
3.995621e-01
4.024927e-01
4.052298e-01
4.078250e-01
4.102032e-01
4.121646e-01
4.143933e-01
4.170309e-01
4.195737e-01
4.219235e-01
4.237421e-01
4.259967e-01
4.261389e-01
4.264059e-01
4.269333e-01
4.277939e-01
4.283093e-01
4.305933e-01
4.328931e-01
4.352618e-01
4.381351e-01
4.406042e-01
4.429288e-01
4.453342e-01
4.476321e-01
4.496799e-01
4.520099e-01
4.548508e-01
4.575723e-01
4.602948e-01
4.626144e-01
4.653394e-01
4.682071e-01
4.710135e-01
4.739377e-01
4.748312e-01
4.753192e-01
4.775961e-01
4.799359e-01
4.822195e-01
4.850192e-01
4.873090e-01
4.892969e-01
4.892297e-01
4.913876e-01
4.934561e-01
4.957370e-01
4.985699e-01
5.013562e-01
5.040665e-01
5.040802e-01
5.068283e-01
5.099759e-01
5.127490e-01
5.157520e-01
5.188330e-01
5.215439e-01
5.237061e-01
5.260278e-01
5.284384e-01
5.312161e-01
5.335886e-01
5.355493e-01
5.356378e-01
5.354752e-01
5.352368e-01
5.352347e-01
5.380212e-01
5.406860e-01
5.430865e-01
5.450220e-01
5.474109e-01
5.502597e-01
5.528201e-01
5.557855e-01
5.588333e-01
5.616608e-01
5.640253e-01
5.664908e-01
5.670428e-01
5.679642e-01
5.685236e-01
5.684848e-01
5.687073e-01
5.684558e-01
5.679526e-01
5.675513e-01
5.675449e-01
5.675305e-01
5.693549e-01
5.708167e-01
5.725778e-01
5.749805e-01
5.772418e-01
5.800580e-01
5.832974e-01
5.865103e-01
5.893607e-01
5.922284e-01
5.933521e-01
5.947482e-01
5.959540e-01
5.963626e-01
5.968857e-01
5.968381e-01
5.961554e-01
5.953860e-01
5.948856e-01
5.944061e-01
5.934464e-01
5.944409e-01
5.956714e-01
5.975470e-01
5.970935e-01
5.972742e-01
5.982050e-01
6.015643e-01
6.047485e-01
6.079471e-01
6.093436e-01
6.109094e-01
6.123080e-01
6.129996e-01
6.138095e-01
6.140378e-01
6.134717e-01
6.126459e-01
6.118265e-01
6.109952e-01
6.096875e-01
6.081891e-01
6.069730e-01
6.085757e-01
6.079089e-01
6.077075e-01
6.084454e-01
6.093579e-01
6.103220e-01
6.114087e-01
6.129706e-01
6.146039e-01
6.159128e-01
6.166428e-01
6.173871e-01
6.176337e-01
6.169815e-01
6.183966e-01
6.198596e-01
6.211832e-01
6.198328e-01
6.183530e-01
6.172971e-01
6.168802e-01
6.165747e-01
6.166833e-01
6.176511e-01
6.186862e-01
6.195856e-01
6.205966e-01
6.220297e-01
6.236676e-01
6.270343e-01
6.297855e-01
6.324933e-01
6.347806e-01
6.362988e-01
6.377747e-01
6.395779e-01
6.413046e-01
6.427533e-01
6.417502e-01
6.412106e-01
6.412604e-01
6.413962e-01
6.419498e-01
6.431369e-01
6.441711e-01
6.447522e-01
6.452661e-01
6.461664e-01
6.472974e-01
6.501422e-01
6.523502e-01
6.545013e-01
6.563733e-01
6.575784e-01
6.589789e-01
6.610321e-01
6.632410e-01
6.652011e-01
6.669778e-01
6.692465e-01
6.697925e-01
6.704196e-01
6.714328e-01
6.730475e-01
6.744275e-01
6.751486e-01
6.754523e-01
6.758856e-01
6.764163e-01
6.787692e-01
6.804895e-01
6.821103e-01
6.835077e-01
6.843045e-01
6.854642e-01
6.874066e-01
6.898172e-01
6.921518e-01
6.944238e-01
6.972577e-01
7.006525e-01
7.019080e-01
7.033759e-01
7.053699e-01
7.093011e-01
7.124289e-01
7.149765e-01
7.174884e-01
7.199414e-01
7.218896e-01
7.233685e-01
7.249271e-01
7.263531e-01
7.271719e-01
7.284204e-01
7.304688e-01
7.330368e-01
7.333511e-01
7.358426e-01
7.390448e-01
7.425125e-01
7.460614e-01
7.496951e-01
7.538370e-01
7.575800e-01
7.606052e-01
7.631964e-01
7.656421e-01
7.681485e-01
7.700153e-01
7.716055e-01
7.708945e-01
7.701120e-01
7.688339e-01
7.701349e-01
7.721277e-01
7.744592e-01
7.745575e-01
7.744461e-01
7.751810e-01
7.783975e-01
7.817123e-01
7.850430e-01
7.888266e-01
7.922244e-01
7.949710e-01
7.975150e-01
8.001108e-01
8.029797e-01
8.050723e-01
8.069327e-01
8.064471e-01
8.057556e-01
8.046451e-01
8.038058e-01
8.037259e-01
8.038062e-01
8.036646e-01
8.030710e-01
8.031732e-01
8.036295e-01
8.063794e-01
8.093219e-01
8.125739e-01
8.155716e-01
8.179556e-01
8.203183e-01
8.230591e-01
8.263333e-01
8.290167e-01
8.313364e-01
8.314664e-01
8.311935e-01
8.306021e-01
8.300708e-01
8.302457e-01
8.304208e-01
8.302032e-01
8.293057e-01
8.288995e-01
8.287253e-01
8.285602e-01
8.287817e-01
8.314767e-01
8.340433e-01
8.360037e-01
8.380151e-01
8.383649e-01
8.393774e-01
8.399957e-01
8.404211e-01
8.409964e-01
8.412720e-01
8.409656e-01
8.404559e-01
8.405643e-01
8.405969e-01
8.401505e-01
8.391290e-01
8.407877e-01
8.403873e-01
8.397229e-01
8.394492e-01
8.395456e-01
8.397736e-01
8.396310e-01
8.419043e-01
8.423526e-01
8.431424e-01
8.437939e-01
8.439902e-01
8.446255e-01
8.449310e-01
8.470392e-01
8.489792e-01
8.490994e-01
8.491251e-01
8.487064e-01
8.477911e-01
8.472330e-01
8.471384e-01
8.465796e-01
8.462451e-01
8.462103e-01
8.462943e-01
8.459509e-01
8.455997e-01
8.458118e-01
8.465140e-01
8.469412e-01
8.468015e-01
8.471255e-01
8.472412e-01
8.491968e-01
8.509497e-01
8.531113e-01
8.554724e-01
8.575177e-01
8.568198e-01
8.565161e-01
8.567709e-01
8.567447e-01
8.568286e-01
8.572028e-01
8.574442e-01
8.571255e-01
8.566739e-01
8.567252e-01
8.571341e-01
8.573679e-01
8.569073e-01
8.567999e-01
8.564566e-01
8.580902e-01
8.597095e-01
8.617526e-01
8.640826e-01
8.659830e-01
8.676282e-01
8.676724e-01
8.683588e-01
8.688071e-01
8.694315e-01
8.704324e-01
8.710825e-01
8.710309e-01
8.705280e-01
8.703891e-01
8.706677e-01
8.706085e-01
8.718521e-01
8.733298e-01
8.746561e-01
8.757947e-01
8.771323e-01
8.791522e-01
8.817517e-01
8.840338e-01
8.859998e-01
8.886130e-01
8.899762e-01
8.908902e-01
8.920654e-01
8.958737e-01
8.992139e-01
9.016858e-01
9.036871e-01
9.035339e-01
9.034744e-01
9.032349e-01
9.043411e-01
9.056961e-01
9.067282e-01
9.075543e-01
9.086740e-01
9.085080e-01
9.090945e-01
9.116599e-01
9.139264e-01
9.164502e-01
9.199271e-01
9.229514e-01
9.264447e-01
9.301703e-01
9.336899e-01
9.363449e-01
9.382584e-01
9.403485e-01
9.425851e-01
9.446390e-01
9.458191e-01
9.474496e-01
9.487643e-01
9.497977e-01
9.508084e-01
9.506354e-01
9.509235e-01
9.511627e-01
9.512112e-01
9.536642e-01
9.568869e-01
9.594119e-01
9.622644e-01
9.653683e-01
9.685120e-01
9.709113e-01
9.726627e-01
9.746851e-01
9.768088e-01
9.789249e-01
9.801141e-01
9.800513e-01
9.795700e-01
9.812128e-01
9.826001e-01
9.826151e-01
9.829263e-01
9.829190e-01
9.825174e-01
9.823181e-01
9.855994e-01
9.878613e-01
9.901947e-01
9.928592e-01
9.956052e-01
9.976706e-01
9.993582e-01
1.001365e+00
1.003804e+00
1.006090e+00
1.007336e+00
1.009557e+00
1.009327e+00
1.008845e+00
1.008278e+00
1.008332e+00
1.008851e+00
1.008835e+00
1.008099e+00
1.007408e+00
1.007633e+00
1.007308e+00
1.009200e+00
1.011371e+00
1.013529e+00
1.015200e+00
1.016614e+00
1.018676e+00
1.021335e+00
1.024017e+00
1.025810e+00
1.028434e+00
1.028918e+00
1.028906e+00
1.028861e+00
1.029231e+00
1.029951e+00
1.032577e+00
1.034355e+00
1.033458e+00
1.033242e+00
1.032444e+00
1.031570e+00
1.031404e+00
1.033328e+00
1.034838e+00
1.033753e+00
1.033084e+00
1.033288e+00
1.033666e+00
1.033463e+00
1.036299e+00
1.039127e+00
1.039124e+00
1.038898e+00
1.039184e+00
1.039897e+00
1.040242e+00
1.041817e+00
1.043225e+00
1.045347e+00
1.044525e+00
1.043514e+00
1.043242e+00
1.042942e+00
1.042248e+00
1.041177e+00
1.040434e+00
1.040364e+00
1.040367e+00
1.039891e+00
1.039994e+00
1.040345e+00
1.042095e+00
1.043859e+00
1.046165e+00
1.046794e+00
1.047043e+00
1.048859e+00
1.050568e+00
1.052787e+00
1.054685e+00
1.054009e+00
1.054015e+00
1.054099e+00
1.053817e+00
1.052971e+00
1.052326e+00
1.052296e+00
1.052125e+00
1.051310e+00
1.050940e+00
1.050852e+00
1.050143e+00
1.051353e+00
1.052994e+00
1.055193e+00
1.057271e+00
1.058980e+00
1.060977e+00
1.063567e+00
1.065856e+00
1.068093e+00
1.068845e+00
1.069471e+00
1.069626e+00
1.069206e+00
1.068969e+00
1.069228e+00
1.069148e+00
1.068125e+00
1.067323e+00
1.066652e+00
1.065194e+00
1.066144e+00
1.067268e+00
1.068885e+00
1.070417e+00
1.071608e+00
1.071267e+00
1.071845e+00
1.072633e+00
1.075332e+00
1.078730e+00
1.082220e+00
1.082844e+00
1.082704e+00
1.082670e+00
1.083200e+00
1.083620e+00
1.084926e+00
1.086144e+00
1.087614e+00
1.085915e+00
1.084086e+00
1.082980e+00
1.084754e+00
1.086423e+00
1.087552e+00
1.089318e+00
1.089720e+00
1.090153e+00
1.090821e+00
1.094423e+00
1.097936e+00
1.100844e+00
1.103122e+00
1.105354e+00
1.108113e+00
1.110610e+00
1.112145e+00
1.113596e+00
1.114869e+00
1.115529e+00
1.113990e+00
1.112810e+00
1.112472e+00
1.112209e+00
1.113596e+00
1.115150e+00
1.117558e+00
1.117704e+00
1.117872e+00
1.121362e+00
1.124709e+00
1.127380e+00
1.129311e+00
1.131129e+00
1.133492e+00
1.135809e+00
1.137484e+00
1.139273e+00
1.140860e+00
1.141696e+00
1.142309e+00
1.141446e+00
1.141088e+00
1.140869e+00
1.139972e+00
1.139382e+00
1.141638e+00
1.143602e+00
1.145589e+00
1.148419e+00
1.151335e+00
1.153601e+00
1.155392e+00
1.157187e+00
1.159569e+00
1.161775e+00
1.163613e+00
1.165642e+00
1.167743e+00
1.169028e+00
1.170027e+00
1.171631e+00
1.171581e+00
1.171456e+00
1.170469e+00
1.169627e+00
1.169378e+00
1.171250e+00
1.172782e+00
1.174918e+00
1.177250e+00
1.179119e+00
1.180534e+00
1.182076e+00
1.184430e+00
1.186695e+00
1.188443e+00
1.190488e+00
1.193206e+00
1.192792e+00
1.194441e+00
1.196444e+00
1.198737e+00
1.201047e+00
1.200133e+00
1.199013e+00
1.198615e+00
1.197934e+00
1.199326e+00
1.201096e+00
1.202915e+00
1.204200e+00
1.202816e+00
1.201568e+00
1.201234e+00
1.200966e+00
1.200198e+00
1.199682e+00
1.201536e+00
1.202792e+00
1.203747e+00
1.205697e+00
1.205680e+00
1.205550e+00
1.204585e+00
1.203593e+00
1.205507e+00
1.207197e+00
1.208673e+00
1.211021e+00
1.211157e+00
1.213123e+00
1.214459e+00
1.215717e+00
1.217919e+00
1.220271e+00
1.222072e+00
1.224199e+00
1.226533e+00
1.228310e+00
1.229721e+00
1.232042e+00
1.234504e+00
1.234861e+00
1.234097e+00
1.233222e+00
1.232788e+00
1.232178e+00
1.233540e+00
1.235307e+00
1.237426e+00
1.238625e+00
1.239730e+00
1.240845e+00
1.242903e+00
1.245107e+00
1.246909e+00
1.249152e+00
1.251672e+00
1.253900e+00
1.255885e+00
1.258682e+00
1.261494e+00
1.264477e+00
1.264123e+00
1.263486e+00
1.263239e+00
1.262607e+00
1.261871e+00
1.263496e+00
1.265188e+00
1.265939e+00
1.266761e+00
1.267626e+00
1.269469e+00
1.271604e+00
1.273291e+00
1.275485e+00
1.278095e+00
1.280630e+00
1.283209e+00
1.284278e+00
1.285313e+00
1.288680e+00
1.290787e+00
1.292711e+00
1.292848e+00
1.292209e+00
1.291181e+00
1.290603e+00
1.292264e+00
1.292817e+00
1.293331e+00
1.294039e+00
1.295833e+00
1.298063e+00
1.299773e+00
1.302170e+00
1.304879e+00
1.307621e+00
1.310247e+00
1.311756e+00
1.313135e+00
1.314482e+00
1.316888e+00
1.318712e+00
1.320808e+00
1.322348e+00
1.321217e+00
1.320099e+00
1.319397e+00
1.320039e+00
1.320527e+00
1.321036e+00
1.320635e+00
1.320382e+00
1.319790e+00
1.320028e+00
1.320709e+00
1.323692e+00
1.326189e+00
1.329667e+00
1.331105e+00
1.332492e+00
1.332767e+00
1.334695e+00
1.336931e+00
1.338397e+00
1.339396e+00
1.340897e+00
1.340376e+00
1.338765e+00
1.337215e+00
1.335595e+00
1.335056e+00
1.334833e+00
1.334179e+00
1.334227e+00
1.334633e+00
1.334921e+00
1.334700e+00
1.337816e+00
1.340811e+00
1.344090e+00
1.346469e+00
1.348522e+00
1.350885e+00
1.352621e+00
1.353978e+00
1.355605e+00
1.355827e+00
1.354899e+00
1.353978e+00
1.352777e+00
1.352513e+00
1.352548e+00
1.351852e+00
1.351653e+00
1.351634e+00
1.351371e+00
1.350551e+00
1.350657e+00
1.353118e+00
1.355830e+00
1.357609e+00
1.359315e+00
1.359553e+00
1.359367e+00
1.361249e+00
1.363293e+00
1.366066e+00
1.365754e+00
1.365225e+00
1.364413e+00
1.364517e+00
1.364803e+00
1.364338e+00
1.364214e+00
1.364078e+00
1.363582e+00
1.362386e+00
1.362006e+00
1.361611e+00
1.363959e+00
1.365454e+00
1.366782e+00
1.366982e+00
1.366712e+00
1.366341e+00
1.366284e+00
1.367113e+00
1.369306e+00
1.371697e+00
1.371307e+00
1.371574e+00
1.372193e+00
1.371705e+00
1.371908e+00
1.374190e+00
1.376078e+00
1.375088e+00
1.374622e+00
1.374252e+00
1.374196e+00
1.373508e+00
1.374975e+00
1.377623e+00
1.377160e+00
1.376723e+00
1.376724e+00
1.377369e+00
1.377595e+00
1.379623e+00
1.381462e+00
1.383877e+00
1.386826e+00
1.388835e+00
1.391297e+00
1.393692e+00
1.395639e+00
1.396930e+00
1.399028e+00
1.399266e+00
1.399609e+00
1.399332e+00
1.398545e+00
1.398745e+00
1.398460e+00
1.397979e+00
1.397767e+00
1.398023e+00
1.397643e+00
1.399189e+00
1.400531e+00
1.402340e+00
1.404870e+00
1.406400e+00
1.408648e+00
1.411190e+00
1.413456e+00
1.415218e+00
1.417673e+00
1.420575e+00
1.424012e+00
1.424440e+00
1.424040e+00
1.424620e+00
1.424478e+00
1.424232e+00
1.426296e+00
1.429007e+00
1.428494e+00
1.427674e+00
1.428755e+00
1.430141e+00
1.432404e+00
1.433809e+00
1.436058e+00
1.438571e+00
1.440988e+00
1.443104e+00
1.445926e+00
1.449158e+00
1.452598e+00
1.455838e+00
1.455936e+00
1.456708e+00
1.456823e+00
1.456591e+00
1.458477e+00
1.460717e+00
1.462131e+00
1.463230e+00
1.464167e+00
1.465449e+00
1.467533e+00
1.468889e+00
1.471118e+00
1.473702e+00
1.476412e+00
1.478823e+00
1.482319e+00
1.485977e+00
1.489824e+00
1.493175e+00
1.495682e+00
1.499067e+00
1.499668e+00
1.499563e+00
1.501566e+00
1.503763e+00
1.504951e+00
1.505948e+00
1.506768e+00
1.505745e+00
1.505464e+00
1.504673e+00
1.506939e+00
1.509501e+00
1.512109e+00
1.514618e+00
1.515623e+00
1.516864e+00
1.518735e+00
1.522240e+00
1.524736e+00
1.527793e+00
1.530263e+00
1.532383e+00
1.534451e+00
1.536929e+00
1.538470e+00
1.539641e+00
1.540507e+00
1.539764e+00
1.539628e+00
1.538976e+00
1.538941e+00
1.539340e+00
1.539669e+00
1.539594e+00
1.540287e+00
1.541145e+00
1.542488e+00
1.543371e+00
1.545490e+00
1.547937e+00
1.549843e+00
1.551447e+00
1.553286e+00
1.556012e+00
1.555677e+00
1.555136e+00
1.554290e+00
1.553930e+00
1.554295e+00
1.554008e+00
1.554116e+00
1.554351e+00
1.554412e+00
1.554014e+00
1.554308e+00
1.554880e+00
1.555757e+00
1.556198e+00
1.555768e+00
1.558152e+00
1.560000e+00
1.561572e+00
1.563357e+00
1.565962e+00
1.565885e+00
1.565591e+00
1.565095e+00
1.565001e+00
1.565770e+00
1.565894e+00
1.566257e+00
1.566736e+00
1.566820e+00
1.566346e+00
1.566267e+00
1.566515e+00
1.567049e+00
1.567137e+00
1.566342e+00
1.565899e+00
1.565337e+00
1.564583e+00
1.566418e+00
1.569030e+00
1.569026e+00
1.568822e+00
1.568480e+00
1.568417e+00
1.569323e+00
1.569925e+00
1.572987e+00
1.573974e+00
1.574254e+00
1.573872e+00
1.573943e+00
1.574039e+00
1.574471e+00
1.576834e+00
1.575952e+00
1.575268e+00
1.574658e+00
1.573711e+00
1.573303e+00
1.573531e+00
1.573497e+00
1.573337e+00
1.572966e+00
1.572943e+00
1.573828e+00
1.574407e+00
1.577234e+00
1.580298e+00
1.582817e+00
1.584812e+00
1.585095e+00
1.585391e+00
1.586079e+00
1.586459e+00
1.585969e+00
1.585579e+00
1.585297e+00
1.584521e+00
1.584195e+00
1.584379e+00
1.584113e+00
1.583846e+00
1.585316e+00
1.587308e+00
1.590237e+00
1.593042e+00
1.595772e+00
1.598990e+00
1.601782e+00
1.604143e+00
1.607071e+00
1.610113e+00
1.611452e+00
1.612259e+00
1.612231e+00
1.612216e+00
1.612203e+00
1.611589e+00
1.611121e+00
1.610937e+00
1.610143e+00
1.609412e+00
1.610254e+00
1.611636e+00
1.613875e+00
1.616131e+00
1.618616e+00
1.621669e+00
1.624683e+00
1.627436e+00
1.630910e+00
1.634328e+00
1.638450e+00
1.639872e+00
1.640336e+00
1.640809e+00
1.643464e+00
1.645526e+00
1.647415e+00
1.647289e+00
1.646426e+00
1.645425e+00
1.646154e+00
1.647455e+00
1.649433e+00
1.651505e+00
1.653648e+00
1.656552e+00
1.659530e+00
1.662375e+00
1.666185e+00
1.670072e+00
1.674542e+00
1.678435e+00
1.681617e+00
1.682461e+00
1.685355e+00
1.687690e+00
1.689707e+00
1.691867e+00
1.693193e+00
1.694415e+00
1.695031e+00
1.696272e+00
1.698431e+00
1.700474e+00
1.702737e+00
1.705654e+00
1.708840e+00
1.709507e+00
1.711142e+00
1.712870e+00
1.717379e+00
1.721272e+00
1.724214e+00
1.727148e+00
1.729680e+00
1.731809e+00
1.733653e+00
1.735721e+00
1.737007e+00
1.738224e+00
1.738939e+00
1.740195e+00
1.740338e+00
1.740314e+00
1.740642e+00
1.741513e+00
1.742560e+00
1.743212e+00
1.744456e+00
1.745773e+00
1.747432e+00
1.750832e+00
1.753273e+00
1.755649e+00
1.757788e+00
1.759542e+00
1.761281e+00
1.763418e+00
1.765060e+00
1.766812e+00
1.768052e+00
1.769856e+00
1.770533e+00
1.771099e+00
1.771891e+00
1.773051e+00
1.774289e+00
1.775014e+00
1.775979e+00
1.776857e+00
1.778092e+00
1.778757e+00
1.778404e+00
1.780339e+00
1.782101e+00
1.783389e+00
1.784790e+00
1.786617e+00
1.788193e+00
1.790196e+00
1.791944e+00
1.794395e+00
1.795672e+00
1.796754e+00
1.798055e+00
1.799537e+00
1.801044e+00
1.801874e+00
1.803004e+00
1.803729e+00
1.804626e+00
1.804769e+00
1.803745e+00
1.802803e+00
1.803849e+00
1.804730e+00
1.805782e+00
1.805149e+00
1.804410e+00
1.804232e+00
1.803900e+00
1.804281e+00
1.805843e+00
1.807226e+00
1.808759e+00
1.810359e+00
1.811904e+00
1.812643e+00
1.813565e+00
1.814084e+00
1.816963e+00
1.816985e+00
1.815677e+00
1.814703e+00
1.813416e+00
1.812035e+00
1.810775e+00
1.810236e+00
1.809505e+00
1.809172e+00
1.808820e+00
1.809066e+00
1.810683e+00
1.812002e+00
1.815838e+00
1.819717e+00
1.823499e+00
1.824286e+00
1.825292e+00
1.826025e+00
1.829181e+00
1.831817e+00
1.833045e+00
1.832339e+00
1.831226e+00
1.830010e+00
1.828952e+00
1.828605e+00
1.827994e+00
1.827709e+00
1.827296e+00
1.827161e+00
1.828500e+00
1.829397e+00
1.832890e+00
1.836525e+00
1.839960e+00
1.842873e+00
1.845968e+00
1.848943e+00
1.852306e+00
1.855317e+00
1.857001e+00
1.859033e+00
1.858524e+00
1.857702e+00
1.857178e+00
1.857200e+00
1.856921e+00
1.856693e+00
1.856158e+00
1.855717e+00
1.856475e+00
1.856937e+00
1.859794e+00
1.862973e+00
1.865880e+00
1.868445e+00
1.871244e+00
1.874131e+00
1.877547e+00
1.880878e+00
1.883070e+00
1.885640e+00
1.887994e+00
1.890118e+00
1.890289e+00
1.890713e+00
1.890776e+00
1.890878e+00
1.892664e+00
1.894399e+00
1.897245e+00
1.899678e+00
1.902184e+00
1.904904e+00
1.907594e+00
1.910129e+00
1.912925e+00
1.915775e+00
1.919276e+00
1.922830e+00
1.923035e+00
1.925815e+00
1.928566e+00
1.930922e+00
1.933559e+00
1.936422e+00
1.938895e+00
1.938918e+00
1.940520e+00
1.942328e+00
1.945053e+00
1.947539e+00
1.949827e+00
1.952562e+00
1.952874e+00
1.953004e+00
1.955831e+00
1.958676e+00
1.962103e+00
1.965425e+00
1.967844e+00
1.970425e+00
1.973166e+00
1.975588e+00
1.978202e+00
1.981013e+00
1.983379e+00
1.985912e+00
1.987707e+00
1.989577e+00
1.992409e+00
1.995139e+00
1.997583e+00
2.000421e+00
2.000771e+00
2.000865e+00
2.001503e+00
2.001997e+00
2.003088e+00
2.006268e+00
2.008280e+00
2.010454e+00
2.012783e+00
2.014932e+00
2.017259e+00
2.019935e+00
2.022242e+00
2.024773e+00
2.026698e+00
2.028748e+00
2.031909e+00
2.035097e+00
2.038120e+00
2.041297e+00
2.042087e+00
2.042369e+00
2.043057e+00
2.043512e+00
2.044496e+00
2.045235e+00
2.046945e+00
2.048633e+00
2.050445e+00
2.052108e+00
2.053970e+00
2.056287e+00
2.058356e+00
2.060938e+00
2.063054e+00
2.065339e+00
2.068819e+00
2.070184e+00
2.071360e+00
2.072707e+00
2.073728e+00
2.074272e+00
2.075073e+00
2.075239e+00
2.075872e+00
2.076221e+00
2.075226e+00
2.076262e+00
2.077519e+00
2.078614e+00
2.077898e+00
2.077682e+00
2.077427e+00
2.077637e+00
2.079826e+00
2.082293e+00
2.085977e+00
2.087545e+00
2.088955e+00
2.090591e+00
2.091834e+00
2.092650e+00
2.095703e+00
2.098093e+00
2.098501e+00
2.098653e+00
2.097731e+00
2.096573e+00
2.095752e+00
2.094525e+00
2.093670e+00
2.093182e+00
2.092608e+00
2.092756e+00
2.092523e+00
2.092665e+00
2.093868e+00
2.095392e+00
2.096553e+00
2.098023e+00
2.099160e+00
2.099943e+00
2.102879e+00
2.105247e+00
2.107808e+00
2.110181e+00
2.109459e+00
2.108401e+00
2.107923e+00
2.107071e+00
2.106550e+00
2.106310e+00
2.105826e+00
2.106052e+00
2.105833e+00
2.105861e+00
2.106786e+00
2.108162e+00
2.111077e+00
2.114354e+00
2.115092e+00
2.115699e+00
2.118677e+00
2.121106e+00
2.123916e+00
2.126550e+00
2.128271e+00
2.127471e+00
2.127302e+00
2.127001e+00
2.127041e+00
2.127195e+00
2.127019e+00
2.127292e+00
2.127066e+00
2.126787e+00
2.127450e+00
2.128557e+00
2.129001e+00
2.131852e+00
2.134356e+00
2.136855e+00
2.139594e+00
2.141966e+00
2.144852e+00
2.147886e+00
2.150081e+00
2.151962e+00
2.154634e+00
2.154894e+00
2.155409e+00
2.156038e+00
2.156297e+00
2.156838e+00
2.156803e+00
2.156507e+00
2.156852e+00
2.157508e+00
2.157458e+00
2.159735e+00
2.161735e+00
2.163489e+00
2.165735e+00
2.167843e+00
2.168482e+00
2.169390e+00
2.171824e+00
2.174118e+00
2.176909e+00
2.179818e+00
2.182979e+00
2.184113e+00
2.184587e+00
2.187738e+00
2.190178e+00
2.192131e+00
2.194789e+00
2.197523e+00
2.197471e+00
2.197377e+00
2.199550e+00
2.201419e+00
2.203674e+00
2.205615e+00
2.208303e+00
2.209200e+00
2.209466e+00
2.209702e+00
2.212567e+00
2.215526e+00
2.218363e+00
2.221508e+00
2.224277e+00
2.227332e+00
2.229837e+00
2.231963e+00
2.234761e+00
2.237582e+00
2.239877e+00
2.242096e+00
2.242335e+00
2.242166e+00
2.242403e+00
2.244492e+00
2.247140e+00
2.247832e+00
2.247783e+00
2.247717e+00
2.248060e+00
2.250774e+00
2.253387e+00
2.256188e+00
2.258362e+00
2.261104e+00
2.263593e+00
2.265735e+00
2.268725e+00
2.271818e+00
2.274501e+00
2.277009e+00
2.279764e+00
2.280145e+00
2.280887e+00
2.281178e+00
2.281721e+00
2.282462e+00
2.282271e+00
2.281910e+00
2.281851e+00
2.281873e+00
2.283813e+00
2.286154e+00
2.287867e+00
2.290156e+00
2.292233e+00
2.294090e+00
2.297007e+00
2.300292e+00
2.303389e+00
2.306273e+00
2.309482e+00
2.310280e+00
2.311603e+00
2.312417e+00
2.313483e+00
2.314508e+00
2.316574e+00
2.318164e+00
2.319911e+00
2.319493e+00
2.318905e+00
2.318588e+00
2.319931e+00
2.321946e+00
2.323904e+00
2.325632e+00
2.328441e+00
2.329579e+00
2.330641e+00
2.331636e+00
2.335062e+00
2.338295e+00
2.341978e+00
2.342734e+00
2.343691e+00
2.344810e+00
2.344656e+00
2.346360e+00
2.348024e+00
2.349543e+00
2.348751e+00
2.348279e+00
2.347299e+00
2.346954e+00
2.346537e+00
2.345941e+00
2.346334e+00
2.347128e+00
2.347936e+00
2.348925e+00
2.349931e+00
2.353036e+00
2.356490e+00
2.359249e+00
2.362273e+00
2.363414e+00
2.363479e+00
2.363298e+00
2.365333e+00
2.367204e+00
2.366668e+00
2.366226e+00
2.365434e+00
2.365345e+00
2.365252e+00
2.364814e+00
2.365118e+00
2.365627e+00
2.365948e+00
2.366516e+00
2.367285e+00
2.368020e+00
2.371286e+00
2.373897e+00
2.376571e+00
2.379716e+00
2.381985e+00
2.381871e+00
2.382066e+00
2.382189e+00
2.382092e+00
2.382150e+00
2.381744e+00
2.381719e+00
2.381563e+00
2.381058e+00
2.381407e+00
2.381691e+00
2.381790e+00
2.381917e+00
2.382215e+00
2.382578e+00
2.383304e+00
2.385756e+00
2.388266e+00
2.391297e+00
2.393522e+00
2.395823e+00
2.396175e+00
2.396664e+00
2.397068e+00
2.397572e+00
2.397578e+00
2.397944e+00
2.398127e+00
2.397690e+00
2.397913e+00
2.398109e+00
2.398144e+00
2.397957e+00
2.399987e+00
2.399879e+00
2.400171e+00
2.400177e+00
2.400241e+00
2.403241e+00
2.405591e+00
2.407736e+00
2.410404e+00
2.411017e+00
2.411685e+00
2.412570e+00
2.413071e+00
2.416065e+00
2.418733e+00
2.420750e+00
2.421155e+00
2.421534e+00
2.421777e+00
2.424065e+00
2.426279e+00
2.428257e+00
2.430544e+00
2.430334e+00
2.430340e+00
2.431306e+00
2.431502e+00
2.433959e+00
2.436547e+00
2.439295e+00
2.442029e+00
2.442722e+00
2.445438e+00
2.448549e+00
2.451505e+00
2.453631e+00
2.456337e+00
2.458988e+00
2.461494e+00
2.463995e+00
2.464454e+00
2.464531e+00
2.464888e+00
2.464764e+00
2.464678e+00
2.465505e+00
2.465658e+00
2.465700e+00
2.465749e+00
2.465822e+00
2.465643e+00
2.465681e+00
2.465550e+00
2.466089e+00
2.466385e+00
2.465936e+00
2.466222e+00
2.466482e+00
2.466583e+00
2.466731e+00
2.467203e+00
2.467416e+00
2.467890e+00
2.467726e+00
2.467731e+00
2.468386e+00
2.468406e+00
2.468414e+00
2.468488e+00
2.468606e+00
2.468550e+00
2.468781e+00
2.468587e+00
2.468837e+00
2.469084e+00
2.468492e+00
2.468753e+00
2.469095e+00
2.469325e+00
2.469407e+00
2.469666e+00
2.469703e+00
2.470166e+00
2.470098e+00
2.470101e+00
2.470915e+00
2.470906e+00
2.470937e+00
2.471033e+00
2.471254e+00
2.471146e+00
2.471273e+00
2.471151e+00
2.471491e+00
2.471672e+00
2.471004e+00
2.471144e+00
2.471438e+00
2.471619e+00
2.471762e+00
2.471930e+00
2.471890e+00
2.472149e+00
2.472081e+00
2.472155e+00
2.472941e+00
2.472937e+00
2.472838e+00
2.472840e+00
2.473075e+00
2.473135e+00
2.473440e+00
2.473270e+00
2.473463e+00
2.473515e+00
2.472889e+00
2.473053e+00
2.473404e+00
2.473621e+00
2.473882e+00
2.474264e+00
2.474207e+00
2.474567e+00
2.474549e+00
2.474565e+00
2.475418e+00
2.475562e+00
2.475558e+00
2.475634e+00
2.475907e+00
2.475783e+00
2.476012e+00
2.475924e+00
2.476319e+00
2.476451e+00
2.475739e+00
2.475810e+00
2.475982e+00
2.476077e+00
2.476198e+00
2.476450e+00
2.476503e+00
2.476702e+00
2.476557e+00
2.476492e+00
2.477358e+00
2.477440e+00
2.477439e+00
2.477520e+00
2.477663e+00
2.477619e+00
2.477774e+00
2.477622e+00
2.477851e+00
2.478173e+00
2.477549e+00
2.477687e+00
2.477997e+00
2.478098e+00
2.478144e+00
2.478536e+00
2.478758e+00
2.479127e+00
2.479067e+00
2.479044e+00
2.479810e+00
2.479862e+00
2.479747e+00
2.479819e+00
2.479854e+00
2.479763e+00
2.479835e+00
2.479658e+00
2.480005e+00
2.480218e+00
2.479522e+00
2.479615e+00
2.479971e+00
2.480196e+00
2.480393e+00
2.480716e+00
2.480845e+00
2.481300e+00
2.481417e+00
2.481522e+00
2.482355e+00
2.482335e+00
2.482262e+00
2.482212e+00
2.482318e+00
2.482313e+00
2.482510e+00
2.482423e+00
2.482577e+00
2.482901e+00
2.482371e+00
2.482534e+00
2.482963e+00
2.483148e+00
2.483248e+00
2.483582e+00
2.483655e+00
2.484094e+00
2.484233e+00
2.484249e+00
2.485078e+00
2.485109e+00
2.484938e+00
2.484902e+00
2.484974e+00
2.484826e+00
2.485045e+00
2.484893e+00
2.485265e+00
2.485540e+00
2.485001e+00
2.485249e+00
2.485738e+00
2.486025e+00
2.486234e+00
2.486603e+00
2.486790e+00
2.487192e+00
2.487263e+00
2.487239e+00
2.488130e+00
2.488169e+00
2.488122e+00
2.488150e+00
2.488126e+00
2.488004e+00
2.488245e+00
2.488128e+00
2.488472e+00
2.488802e+00
2.488191e+00
2.488314e+00
2.488741e+00
2.488973e+00
2.489217e+00
2.489706e+00
2.489923e+00
2.490241e+00
2.490256e+00
2.490161e+00
2.491065e+00
2.491256e+00
2.491163e+00
2.491295e+00
2.491400e+00
2.491366e+00
2.491502e+00
2.491497e+00
2.491840e+00
2.492239e+00
2.491713e+00
2.491825e+00
2.492162e+00
2.492253e+00
2.492417e+00
2.492751e+00
2.492852e+00
2.493203e+00
2.493242e+00
2.493177e+00
2.494070e+00
2.494189e+00
2.494182e+00
2.494333e+00
2.494500e+00
2.494527e+00
2.494724e+00
2.494556e+00
2.494673e+00
2.494990e+00
2.494439e+00
2.494591e+00
2.494936e+00
2.495025e+00
2.495150e+00
2.495403e+00
2.495565e+00
2.496008e+00
2.496126e+00
2.496125e+00
2.497021e+00
2.497137e+00
2.497083e+00
2.497101e+00
2.497422e+00
2.497487e+00
2.497729e+00
2.497646e+00
2.497804e+00
2.498060e+00
2.497432e+00
2.497508e+00
2.497866e+00
2.497988e+00
2.498153e+00
2.498352e+00
2.498453e+00
2.498819e+00
2.498976e+00
2.498983e+00
2.499789e+00
2.499965e+00
2.499895e+00
2.500038e+00
2.500056e+00
2.499926e+00
2.500199e+00
2.500067e+00
2.500211e+00
2.500470e+00
2.499868e+00
2.499989e+00
2.500402e+00
2.500483e+00
2.500592e+00
2.500842e+00
2.500887e+00
2.501218e+00
2.501193e+00
2.501192e+00
2.501975e+00
2.502101e+00
2.502004e+00
2.502070e+00
2.502151e+00
2.502050e+00
2.502127e+00
2.501949e+00
2.502196e+00
2.502522e+00
2.501880e+00
2.501866e+00
2.502097e+00
2.502292e+00
2.502583e+00
2.503041e+00
2.503254e+00
2.503551e+00
2.503546e+00
2.503367e+00
2.504144e+00
2.504236e+00
2.504100e+00
2.504129e+00
2.504119e+00
2.504077e+00
2.504230e+00
2.504083e+00
2.504228e+00
2.504560e+00
2.504003e+00
2.504138e+00
2.504597e+00
2.504750e+00
2.504865e+00
2.505315e+00
2.505553e+00
2.505976e+00
2.506019e+00
2.505951e+00
2.506639e+00
2.506744e+00
2.506618e+00
2.506674e+00
2.506762e+00
2.506682e+00
2.506820e+00
2.506711e+00
2.506896e+00
2.507235e+00
2.506780e+00
2.507006e+00
2.507440e+00
2.507609e+00
2.507641e+00
2.507918e+00
2.508125e+00
2.508550e+00
2.508756e+00
2.508727e+00
2.509442e+00
2.509524e+00
2.509333e+00
2.509418e+00
2.509474e+00
2.509328e+00
2.509522e+00
2.509455e+00
2.509591e+00
2.509893e+00
2.509542e+00
2.509735e+00
2.510259e+00
2.510341e+00
2.510406e+00
2.510656e+00
2.510851e+00
2.511262e+00
2.511536e+00
2.511543e+00
2.512337e+00
2.512575e+00
2.512477e+00
2.512564e+00
2.512772e+00
2.512683e+00
2.512844e+00
2.512753e+00
2.512896e+00
2.513210e+00
2.512736e+00
2.512910e+00
2.513271e+00
2.513429e+00
2.513585e+00
2.513915e+00
2.513949e+00
2.514304e+00
2.514435e+00
2.514469e+00
2.515390e+00
2.515616e+00
2.515529e+00
2.515598e+00
2.515804e+00
2.515734e+00
2.515964e+00
2.515894e+00
2.516099e+00
2.516468e+00
2.516060e+00
2.516148e+00
2.516583e+00
2.516770e+00
2.516938e+00
2.517308e+00
2.517339e+00
2.517523e+00
2.517592e+00
2.517585e+00
2.518494e+00
2.518947e+00
2.519105e+00
2.519241e+00
2.519333e+00
2.519215e+00
2.519364e+00
2.519306e+00
2.519529e+00
2.519894e+00
2.519359e+00
2.519462e+00
2.519800e+00
2.519927e+00
2.519921e+00
2.520310e+00
2.520525e+00
2.520847e+00
2.520903e+00
2.520771e+00
2.521543e+00
2.521639e+00
2.521720e+00
2.522043e+00
2.522307e+00
2.522268e+00
2.522603e+00
2.522494e+00
2.522664e+00
2.523021e+00
2.522611e+00
2.522702e+00
2.522993e+00
2.523097e+00
2.523123e+00
2.523503e+00
2.523826e+00
2.524303e+00
2.524491e+00
2.524367e+00
2.525080e+00
2.525174e+00
2.525184e+00
2.525464e+00
2.525622e+00
2.525570e+00
2.525696e+00
2.525694e+00
2.525838e+00
2.526202e+00
2.525818e+00
2.525959e+00
2.526349e+00
2.526447e+00
2.526474e+00
2.526817e+00
2.526942e+00
2.527266e+00
2.527521e+00
2.527571e+00
2.528369e+00
2.528441e+00
2.528337e+00
2.528547e+00
2.528737e+00
2.528641e+00
2.528817e+00
2.528793e+00
2.528859e+00
2.529152e+00
2.528652e+00
2.528804e+00
2.529214e+00
2.529514e+00
2.529738e+00
2.530119e+00
2.530181e+00
2.530420e+00
2.530563e+00
2.530540e+00
2.531394e+00
2.531500e+00
2.531387e+00
2.531315e+00
2.531418e+00
2.531228e+00
2.531460e+00
2.531493e+00
2.531660e+00
2.531985e+00
2.531401e+00
2.531466e+00
2.531759e+00
2.531960e+00
2.532311e+00
2.532842e+00
2.533102e+00
2.533328e+00
2.533380e+00
2.533314e+00
2.534227e+00
2.534517e+00
2.534469e+00
2.534536e+00
2.534535e+00
2.534200e+00
2.534398e+00
2.534439e+00
2.534613e+00
2.535012e+00
2.534575e+00
2.534589e+00
2.534925e+00
2.535077e+00
2.535336e+00
2.535803e+00
2.536074e+00
2.536417e+00
2.536512e+00
2.536310e+00
2.537069e+00
2.537141e+00
2.537101e+00
2.537189e+00
2.537315e+00
2.537104e+00
2.537156e+00
2.537068e+00
2.537180e+00
2.537631e+00
2.537190e+00
2.537384e+00
2.537588e+00
2.537615e+00
2.537758e+00
2.538158e+00
2.538480e+00
2.538889e+00
2.539115e+00
2.538909e+00
2.539642e+00
2.539667e+00
2.539561e+00
2.539748e+00
2.539936e+00
2.539778e+00
2.539864e+00
2.539967e+00
2.539993e+00
2.540342e+00
2.539959e+00
2.540137e+00
2.540511e+00
2.540600e+00
2.540698e+00
2.541022e+00
2.541133e+00
2.541476e+00
2.541799e+00
2.541779e+00
2.542637e+00
2.542874e+00
2.542797e+00
2.542978e+00
2.543251e+00
2.543170e+00
2.543351e+00
2.543477e+00
2.543638e+00
2.543982e+00
2.543477e+00
2.543661e+00
2.544072e+00
2.544247e+00
2.544468e+00
2.544829e+00
2.544850e+00
2.544980e+00
2.545155e+00
2.545117e+00
2.546122e+00
2.546412e+00
2.546372e+00
2.546562e+00
2.546680e+00
2.546612e+00
2.546884e+00
2.547126e+00
2.547280e+00
2.547661e+00
2.547102e+00
2.547120e+00
2.547458e+00
2.547546e+00
2.547700e+00
2.548044e+00
2.548059e+00
2.548130e+00
2.548314e+00
2.548218e+00
2.549117e+00
2.549394e+00
2.549492e+00
2.549744e+00
2.549891e+00
2.549793e+00
2.549977e+00
2.550075e+00
2.550229e+00
2.550735e+00
2.550266e+00
2.550277e+00
2.550556e+00
2.550567e+00
2.550707e+00
2.551144e+00
2.551317e+00
2.551600e+00
2.551801e+00
2.551627e+00
2.552462e+00
2.552754e+00
2.552792e+00
2.553061e+00
2.553281e+00
2.553218e+00
2.553484e+00
2.553563e+00
2.553575e+00
2.553979e+00
2.553549e+00
2.553756e+00
2.554083e+00
2.554175e+00
2.554300e+00
2.554742e+00
2.554995e+00
2.555370e+00
2.555656e+00
2.555497e+00
2.556173e+00
2.556415e+00
2.556335e+00
2.556518e+00
2.556702e+00
2.556555e+00
2.556684e+00
2.556781e+00
2.556805e+00
2.557191e+00
2.556797e+00
2.556987e+00
2.557363e+00
2.557476e+00
2.557737e+00
2.558195e+00
2.558419e+00
2.558696e+00
2.558990e+00
2.558880e+00
2.559587e+00
2.559827e+00
2.559710e+00
2.559760e+00
2.559907e+00
2.559613e+00
2.559680e+00
2.559757e+00
2.559730e+00
-2.559851e+00
2.559695e+00
2.559782e+00
-2.559747e+00
-2.559466e+00
-2.559153e+00
-2.558551e+00
-2.558265e+00
-2.557990e+00
-2.557619e+00
-2.557667e+00
-2.556844e+00
-2.556712e+00
-2.556726e+00
-2.556686e+00
-2.556681e+00
-2.556933e+00
-2.556819e+00
-2.556779e+00
-2.556610e+00
-2.556167e+00
-2.556510e+00
-2.556470e+00
-2.556024e+00
-2.555862e+00
-2.555539e+00
-2.554952e+00
-2.554586e+00
-2.554381e+00
-2.554077e+00
-2.554227e+00
-2.553580e+00
-2.553367e+00
-2.553521e+00
-2.553320e+00
-2.553093e+00
-2.553354e+00
-2.553329e+00
-2.553298e+00
-2.553371e+00
-2.552943e+00
-2.553297e+00
-2.553172e+00
-2.552774e+00
-2.552607e+00
-2.552343e+00
-2.551807e+00
-2.551497e+00
-2.551166e+00
-2.550856e+00
-2.550968e+00
-2.550219e+00
-2.550066e+00
-2.550060e+00
-2.549908e+00
-2.549763e+00
-2.549976e+00
-2.549812e+00
-2.549775e+00
-2.549880e+00
-2.549492e+00
-2.549873e+00
-2.549730e+00
-2.549498e+00
-2.549386e+00
-2.549182e+00
-2.548753e+00
-2.548541e+00
-2.548296e+00
-2.547946e+00
-2.547925e+00
-2.547155e+00
-2.546754e+00
-2.546730e+00
-2.546464e+00
-2.546251e+00
-2.546501e+00
-2.546423e+00
-2.546178e+00
-2.546137e+00
-2.545621e+00
-2.545994e+00
-2.545883e+00
-2.545479e+00
-2.545367e+00
-2.545208e+00
-2.544678e+00
-2.544647e+00
-2.544521e+00
-2.544292e+00
-2.544373e+00
-2.543615e+00
-2.543324e+00
-2.543262e+00
-2.543057e+00
-2.542888e+00
-2.543056e+00
-2.542906e+00
-2.542842e+00
-2.542813e+00
-2.542468e+00
-2.543038e+00
-2.542971e+00
-2.542697e+00
-2.542559e+00
-2.542339e+00
-2.541784e+00
-2.541673e+00
-2.541605e+00
-2.541426e+00
-2.541564e+00
-2.540695e+00
-2.540343e+00
-2.540291e+00
-2.540145e+00
-2.539819e+00
-2.540001e+00
-2.539835e+00
-2.539600e+00
-2.539482e+00
-2.539084e+00
-2.539478e+00
-2.539425e+00
-2.539206e+00
-2.539119e+00
-2.539071e+00
-2.538616e+00
-2.538414e+00
-2.538214e+00
-2.537996e+00
-2.538187e+00
-2.537468e+00
-2.537209e+00
-2.537122e+00
-2.536902e+00
-2.536664e+00
-2.536709e+00
-2.536514e+00
-2.536452e+00
-2.536477e+00
-2.536080e+00
-2.536476e+00
-2.536358e+00
-2.536176e+00
-2.536082e+00
-2.535952e+00
-2.535481e+00
-2.535134e+00
-2.534900e+00
-2.534569e+00
-2.534749e+00
-2.533980e+00
-2.533789e+00
-2.533740e+00
-2.533546e+00
-2.533289e+00
-2.533463e+00
-2.533317e+00
-2.533115e+00
-2.533145e+00
-2.532867e+00
-2.533376e+00
-2.533322e+00
-2.533192e+00
-2.533135e+00
-2.532971e+00
-2.532539e+00
-2.532334e+00
-2.532161e+00
-2.531786e+00
-2.531745e+00
-2.530897e+00
-2.530721e+00
-2.530703e+00
-2.530548e+00
-2.530465e+00
-2.530681e+00
-2.530620e+00
-2.530465e+00
-2.530453e+00
-2.530177e+00
-2.530625e+00
-2.530558e+00
-2.530286e+00
-2.530143e+00
-2.529868e+00
-2.529298e+00
-2.529075e+00
-2.528993e+00
-2.528654e+00
-2.528660e+00
-2.527818e+00
-2.527557e+00
-2.527551e+00
-2.527562e+00
-2.527476e+00
-2.527813e+00
-2.527743e+00
-2.527507e+00
-2.527513e+00
-2.527270e+00
-2.527767e+00
-2.527684e+00
-2.527440e+00
-2.527212e+00
-2.526828e+00
-2.526163e+00
-2.525851e+00
-2.525718e+00
-2.525374e+00
-2.525432e+00
-2.524701e+00
-2.524480e+00
-2.524396e+00
-2.524261e+00
-2.524197e+00
-2.524468e+00
-2.524491e+00
-2.524333e+00
-2.524353e+00
-2.523872e+00
-2.524304e+00
-2.524216e+00
-2.523967e+00
-2.523824e+00
-2.523582e+00
-2.522991e+00
-2.522656e+00
-2.522409e+00
-2.522169e+00
-2.522397e+00
-2.521779e+00
-2.521562e+00
-2.521603e+00
-2.521505e+00
-2.521285e+00
-2.521620e+00
-2.521479e+00
-2.521303e+00
-2.521345e+00
-2.520976e+00
-2.521344e+00
-2.521124e+00
-2.520909e+00
-2.520710e+00
-2.520483e+00
-2.519870e+00
-2.519626e+00
-2.519441e+00
-2.519107e+00
-2.519328e+00
-2.518699e+00
-2.518669e+00
-2.518612e+00
-2.518414e+00
-2.518233e+00
-2.518434e+00
-2.518297e+00
-2.518028e+00
-2.517967e+00
-2.517489e+00
-2.517834e+00
-2.517635e+00
-2.517428e+00
-2.517295e+00
-2.517145e+00
-2.516578e+00
-2.516435e+00
-2.516500e+00
-2.516175e+00
-2.516267e+00
-2.515508e+00
-2.515294e+00
-2.515299e+00
-2.515197e+00
-2.515032e+00
-2.515274e+00
-2.515029e+00
-2.514700e+00
-2.514586e+00
-2.514291e+00
-2.514713e+00
-2.514508e+00
-2.514161e+00
-2.514085e+00
-2.513928e+00
-2.513403e+00
-2.513325e+00
-2.513451e+00
-2.513308e+00
-2.513355e+00
-2.512563e+00
-2.512304e+00
-2.512191e+00
-2.512006e+00
-2.511917e+00
-2.512116e+00
-2.511925e+00
-2.511592e+00
-2.511526e+00
-2.511120e+00
-2.511556e+00
-2.511513e+00
-2.511240e+00
-2.511210e+00
-2.511109e+00
-2.510657e+00
-2.510431e+00