6.8	0.001614957
6.801	0.001614957
6.802	0.001614957
6.803	0.001614957
6.804	0.001614957
6.805	0.001614957
6.806	0.001614957
6.807	0.001614957
6.808	0.001614957
6.809	0.001614957
6.81	0.001614957
6.811	0.001614957
6.812	0.001614957
6.813	0.001614957
6.814	0.001614957
6.815	0.001614957
6.816	0.001614957
6.817	0.001614957
6.818	0.001614303
6.819	0.001614303
6.82	0.001614303
6.821	0.001614303
6.822	0.001614303
6.823	0.001614303
6.824	0.001614303
6.825	0.001614303
6.826	0.001614303
6.827	0.001614303
6.828	0.001614303
6.829	0.001614303
6.83	0.001614303
6.831	0.001614303
6.832	0.001614303
6.833	0.001614303
6.834	0.001614303
6.835	0.001614303
6.836	0.001614303
6.837	0.001614303
6.838	0.001614303
6.839	0.001614303
6.84	0.001614303
6.841	0.001614303
6.842	0.001614303
6.843	0.001614303
6.844	0.001614303
6.845	0.001614303
6.846	0.001614303
6.847	0.001614303
6.848	0.001614303
6.849	0.001614303
6.85	0.001614303
6.851	0.001614303
6.852	0.001614303
6.853	0.001614303
6.854	0.001614303
6.855	0.001614303
6.856	0.001614303
6.857	0.001614303
6.858	0.001614303
6.859	0.001614303
6.86	0.001614303
6.861	0.001614303
6.862	0.001614303
6.863	0.001614303
6.864	0.001614303
6.865	0.001614303
6.866	0.001614303
6.867	0.001614303
6.868	0.001614303
6.869	0.001614303
6.87	0.001614303
6.871	0.001614303
6.872	0.001614303
6.873	0.001614303
6.874	0.001614303
6.875	0.001614303
6.876	0.001614303
6.877	0.001614303
6.878	0.001614303
6.879	0.001614303
6.88	0.001614303
6.881	0.001614303
6.882	0.001614303
6.883	0.001614303
6.884	0.001614303
6.885	0.001614303
6.886	0.001614303
6.887	0.001614303
6.888	0.001614303
6.889	0.001614303
6.89	0.001614303
6.891	0.001614303
6.892	0.001614303
6.893	0.001614303
6.894	0.001614303
6.895	0.001614303
6.896	0.001614303
6.897	0.001614303
6.898	0.001614303
6.899	0.001614303
6.9	0.001614303
6.901	0.001614303
6.902	0.001614303
6.903	0.001614303
6.904	0.001614303
6.905	0.001614303
6.906	0.001614303
6.907	0.001614303
6.908	0.001614303
6.909	0.001614303
6.91	0.001614303
6.911	0.001614303
6.912	0.001614303
6.913	0.001614303
6.914	0.001614303
6.915	0.001614303
6.916	0.001614303
6.917	0.001614303
6.918	0.001614303
6.919	0.001614303
6.92	0.001614303
6.921	0.001614303
6.922	0.001614303
6.923	0.001614303
6.924	0.001614303
6.925	0.001614303
6.926	0.001614303
6.927	0.001614303
6.928	0.001614303
6.929	0.001614303
6.93	0.001614303
6.931	0.001614303
6.932	0.001614303
6.933	0.001614303
6.934	0.001614303
6.935	0.001614303
6.936	0.001614303
6.937	0.001614303
6.938	0.001614303
6.939	0.001614303
6.94	0.001614303
6.941	0.001614303
6.942	0.001614303
6.943	0.001614303
6.944	0.001614303
6.945	0.001614303
6.946	0.001614303
6.947	0.001614303
6.948	0.001614303
6.949	0.001614303
6.95	0.001614303
6.951	0.001614303
6.952	0.001614303
6.953	0.001614303
6.954	0.001614303
6.955	0.001614303
6.956	0.001614303
6.957	0.001614303
6.958	0.001614303
6.959	0.001614303
6.96	0.001614303
6.961	0.001614303
6.962	0.001614303
6.963	0.001614303
6.964	0.001614303
6.965	0.001614303
6.966	0.001614303
6.967	0.001614303
6.968	0.001614303
6.969	0.001614303
6.97	0.001614303
6.971	0.001614303
6.972	0.001614303
6.973	0.001614303
6.974	0.001614303
6.975	0.001614303
6.976	0.001614303
6.977	0.001614303
6.978	0.001614303
6.979	0.001614303
6.98	0.001614303
6.981	0.001614303
6.982	0.001614303
6.983	0.001614303
6.984	0.001614303
6.985	0.001614303
6.986	0.001614303
6.987	0.001614303
6.988	0.001614303
6.989	0.001614303
6.99	0.001614303
6.991	0.001614303
6.992	0.001614303
6.993	0.001614303
6.994	0.001614303
6.995	0.001614303
6.996	0.001614303
6.997	0.001614303
6.998	0.001614303
6.999	0.001614303
7	0.001614303
7.001	0.001614303
7.002	0.001614303
7.003	0.001614303
7.004	0.001614303
7.005	0.001614303
7.006	0.001614303
7.007	0.001614303
7.008	0.001614303
7.009	0.001614303
7.01	0.001614303
7.011	0.001614303
7.012	0.001614303
7.013	0.001614303
7.014	0.001614303
7.015	0.001614303
7.016	0.001614303
7.017	0.001614303
7.018	0.001614303
7.019	0.001614303
7.02	0.001614303
7.021	0.001614303
7.022	0.001614303
7.023	0.00162243
7.024	0.001597149
7.025	0.001534887
7.026	0.001450929
7.027	0.001395384
7.028	0.001455577
7.029	0.00162252
7.03	0.001887435
7.031	0.002170967
7.032	0.002350069
7.033	0.002309229
7.034	0.001920551
7.035	0.001201874
7.036	0.0003100235
7.037	-0.0004485008
7.038	-0.0006659766
7.039	7.421541e-005
7.04	0.00208025
7.041	0.005468424
7.042	0.01011746
7.043	0.01566648
7.044	0.02169562
7.045	0.0277235
7.046	0.03332807
7.047	0.03816291
7.048	0.0419394
7.049	0.04460444
7.05	0.04613583
7.051	0.04652779
7.052	0.04573106
7.053	0.04363683
7.054	0.04029861
7.055	0.03577107
7.056	0.03014591
7.057	0.0235349
7.058	0.01606375
7.059	0.008002216
7.06	-0.0004144082
7.061	-0.008957426
7.062	-0.01741206
7.063	-0.02557486
7.064	-0.03320853
7.065	-0.04016718
7.066	-0.04632822
7.067	-0.05158636
7.068	-0.05585939
7.069	-0.05908247
7.07	-0.0613354
7.071	-0.06268182
7.072	-0.06316614
7.073	-0.06283113
7.074	-0.06173459
7.075	-0.06006795
7.076	-0.05796088
7.077	-0.0554888
7.078	-0.05269582
7.079	-0.0496407
7.08	-0.0464594
7.081	-0.04322358
7.082	-0.03995106
7.083	-0.0366207
7.084	-0.03326423
7.085	-0.02991721
7.086	-0.02659468
7.087	-0.02328988
7.088	-0.01996801
7.089	-0.01670634
7.09	-0.01350565
7.091	-0.01038879
7.092	-0.007378342
7.093	-0.004466054
7.094	-0.001786219
7.095	0.0006780459
7.096	0.002911193
7.097	0.004902266
7.098	0.006686892
7.099	0.008168429
7.1	0.00943144
7.101	0.01052878
7.102	0.01151682
7.103	0.01248984
7.104	0.01343035
7.105	0.01446464
7.106	0.01567481
7.107	0.01712193
7.108	0.01886543
7.109	0.02086617
7.11	0.02316833
7.111	0.02576336
7.112	0.0286047
7.113	0.03162209
7.114	0.0346678
7.115	0.03766518
7.116	0.04050864
7.117	0.04307934
7.118	0.04526622
7.119	0.04691465
7.12	0.04797824
7.121	0.04841613
7.122	0.04821225
7.123	0.04740101
7.124	0.04599056
7.125	0.04410683
7.126	0.04187774
7.127	0.03945049
7.128	0.03700835
7.129	0.03469484
7.13	0.03270564
7.131	0.0311986
7.132	0.03030207
7.133	0.03011444
7.134	0.03069041
7.135	0.03205115
7.136	0.0341653
7.137	0.03694553
7.138	0.04023629
7.139	0.04389609
7.14	0.04772922
7.141	0.0515312
7.142	0.05507414
7.143	0.05809091
7.144	0.06044734
7.145	0.06198688
7.146	0.06259613
7.147	0.06217512
7.148	0.06061116
7.149	0.05806134
7.15	0.05463093
7.151	0.05045933
7.152	0.04566076
7.153	0.04026541
7.154	0.03470171
7.155	0.02918358
7.156	0.02390468
7.157	0.01893425
7.158	0.01411376
7.159	0.009797387
7.16	0.005924278
7.161	0.002410259
7.162	-0.0009898938
7.163	-0.004799375
7.164	-0.008980401
7.165	-0.0139522
7.166	-0.02005468
7.167	-0.02766419
7.168	-0.03725803
7.169	-0.04889133
7.17	-0.06288539
7.171	-0.07935592
7.172	-0.09823313
7.173	-0.1192283
7.174	-0.1420388
7.175	-0.1663718
7.176	-0.1917245
7.177	-0.2172786
7.178	-0.2417959
7.179	-0.2645892
7.18	-0.2849042
7.181	-0.3019304
7.182	-0.3146209
7.183	-0.3216046
7.184	-0.3224683
7.185	-0.3168596
7.186	-0.3045366
7.187	-0.2852207
7.188	-0.2585915
7.189	-0.225243
7.19	-0.1858959
7.191	-0.1413931
7.192	-0.09266102
7.193	-0.04076703
7.194	0.01277957
7.195	0.06660401
7.196	0.1193358
7.197	0.1695529
7.198	0.2157558
7.199	0.2565393
7.2	0.2911401
7.201	0.3188585
7.202	0.3390012
7.203	0.3509634
7.204	0.3544444
7.205	0.3501354
7.206	0.3386417
7.207	0.3205096
7.208	0.2964023
7.209	0.2671272
7.21	0.2343349
7.211	0.1993553
7.212	0.1633042
7.213	0.1272521
7.214	0.09220013
7.215	0.05940427
7.216	0.02974676
7.217	0.003836975
7.218	-0.01793692
7.219	-0.03521552
7.22	-0.04801856
7.221	-0.05650019
7.222	-0.06094561
7.223	-0.06186093
7.224	-0.05951891
7.225	-0.0548741
7.226	-0.04867279
7.227	-0.04155389
7.228	-0.03420765
7.229	-0.02690587
7.23	-0.02050354
7.231	-0.01548864
7.232	-0.01210944
7.233	-0.01049958
7.234	-0.01047535
7.235	-0.01215207
7.236	-0.01539923
7.237	-0.01991077
7.238	-0.02524855
7.239	-0.03094555
7.24	-0.03662073
7.241	-0.04188549
7.242	-0.04634107
7.243	-0.04956854
7.244	-0.05132201
7.245	-0.05138287
7.246	-0.04965255
7.247	-0.04612568
7.248	-0.04088072
7.249	-0.03412989
7.25	-0.02611609
7.251	-0.0171501
7.252	-0.007610158
7.253	0.002045619
7.254	0.01140768
7.255	0.02007763
7.256	0.02770331
7.257	0.03395017
7.258	0.03848741
7.259	0.04114313
7.26	0.04183731
7.261	0.04056545
7.262	0.03737646
7.263	0.03238333
7.264	0.02579395
7.265	0.01793876
7.266	0.009147707
7.267	-0.0002376091
7.268	-0.009831576
7.269	-0.01929737
7.27	-0.02824283
7.271	-0.03635369
7.272	-0.04335858
7.273	-0.04900497
7.274	-0.05315092
7.275	-0.05571551
7.276	-0.05668413
7.277	-0.05608768
7.278	-0.05401195
7.279	-0.0505851
7.28	-0.04606768
7.281	-0.04070413
7.282	-0.03473777
7.283	-0.02844682
7.284	-0.02204837
7.285	-0.01586507
7.286	-0.01014056
7.287	-0.005073966
7.288	-0.0008496956
7.289	0.00243281
7.29	0.004667319
7.291	0.005814307
7.292	0.005882337
7.293	0.004930988
7.294	0.003031937
7.295	0.0003413659
7.296	-0.002981885
7.297	-0.006761495
7.298	-0.01077289
7.299	-0.01487606
7.3	-0.01882992
7.301	-0.0224455
7.302	-0.02555168
7.303	-0.02796418
7.304	-0.02962659
7.305	-0.03043539
7.306	-0.03034507
7.307	-0.02934065
7.308	-0.02742652
7.309	-0.02470329
7.31	-0.02127813
7.311	-0.01727729
7.312	-0.01283858
7.313	-0.00811682
7.314	-0.003293151
7.315	0.001450364
7.316	0.00595585
7.317	0.01008319
7.318	0.01370481
7.319	0.01671202
7.32	0.01904518
7.321	0.02067394
7.322	0.02159211
7.323	0.02182449
7.324	0.0213987
7.325	0.02042648
7.326	0.0190123
7.327	0.01726093
7.328	0.01529657
7.329	0.01319276
7.33	0.01110008
7.331	0.009126054
7.332	0.007355887
7.333	0.005875653
7.334	0.004689283
7.335	0.003850693
7.336	0.003374736
7.337	0.003260441
7.338	0.00350796
7.339	0.004052722
7.34	0.00485857
7.341	0.005882689
7.342	0.007088964
7.343	0.008452655
7.344	0.009920326
7.345	0.01145279
7.346	0.01302333
7.347	0.01461841
7.348	0.01623367
7.349	0.01785091
7.35	0.01945946
7.351	0.02105204
7.352	0.02262134
7.353	0.02415788
7.354	0.02563248
7.355	0.02703482
7.356	0.02834404
7.357	0.0295306
7.358	0.03056326
7.359	0.03139124
7.36	0.03200868
7.361	0.03239956
7.362	0.03254545
7.363	0.03243732
7.364	0.03206442
7.365	0.03146842
7.366	0.03068414
7.367	0.02974476
7.368	0.02868664
7.369	0.02757342
7.37	0.02648263
7.371	0.02547811
7.372	0.02460319
7.373	0.02386925
7.374	0.02335573
7.375	0.02308827
7.376	0.02307449
7.377	0.02328044
7.378	0.02360379
7.379	0.02406478
7.38	0.02458095
7.381	0.02506872
7.382	0.02540736
7.383	0.02540773
7.384	0.02505241
7.385	0.02422064
7.386	0.02282286
7.387	0.02076465
7.388	0.01792351
7.389	0.01435746
7.39	0.01004672
7.391	0.005020547
7.392	-0.0006671369
7.393	-0.006950369
7.394	-0.01362941
7.395	-0.0205828
7.396	-0.02765428
7.397	-0.03466421
7.398	-0.04142168
7.399	-0.04767635
7.4	-0.0533033
7.401	-0.05816926
7.402	-0.06214067
7.403	-0.06510591
7.404	-0.06694617
7.405	-0.06771562
7.406	-0.06746122
7.407	-0.06623595
7.408	-0.06412859
7.409	-0.06122649
7.41	-0.05776815
7.411	-0.05395219
7.412	-0.04995339
7.413	-0.0459445
7.414	-0.04208632
7.415	-0.03858999
7.416	-0.03560002
7.417	-0.03320223
7.418	-0.0314245
7.419	-0.03031244
7.42	-0.0298528
7.421	-0.02999082
7.422	-0.03061967
7.423	-0.03156006
7.424	-0.03273481
7.425	-0.03396004
7.426	-0.03507515
7.427	-0.0359126
7.428	-0.03626633
7.429	-0.03611258
7.43	-0.03532737
7.431	-0.03385158
7.432	-0.03165113
7.433	-0.02868526
7.434	-0.02510159
7.435	-0.02095228
7.436	-0.01633618
7.437	-0.01136487
7.438	-0.006137706
7.439	-0.0008783343
7.44	0.004305378
7.441	0.009299201
7.442	0.01400204
7.443	0.0183438
7.444	0.02219106
7.445	0.0255444
7.446	0.02840203
7.447	0.03077021
7.448	0.03268061
7.449	0.03411117
7.45	0.03516869
7.451	0.03592542
7.452	0.03643288
7.453	0.03674487
7.454	0.03684964
7.455	0.03684602
7.456	0.03677882
7.457	0.03665932
7.458	0.03649068
7.459	0.03622863
7.46	0.0359163
7.461	0.03555975
7.462	0.03514496
7.463	0.03465372
7.464	0.03407015
7.465	0.03342437
7.466	0.03273537
7.467	0.0320129
7.468	0.03125524
7.469	0.03050819
7.47	0.02980188
7.471	0.02916349
7.472	0.02860341
7.473	0.02809854
7.474	0.02769689
7.475	0.02738096
7.476	0.02713157
7.477	0.02690719
7.478	0.0266251
7.479	0.0262864
7.48	0.02582044
7.481	0.02516896
7.482	0.02426806
7.483	0.02303568
7.484	0.02148055
7.485	0.01956287
7.486	0.01727245
7.487	0.01461645
7.488	0.01161174
7.489	0.008356222
7.49	0.004904834
7.491	0.001338718
7.492	-0.002244368
7.493	-0.00574114
7.494	-0.008993481
7.495	-0.01192039
7.496	-0.01443558
7.497	-0.01645993
7.498	-0.01794119
7.499	-0.01879348
7.5	-0.01904624
7.501	-0.01873066
7.502	-0.01789639
7.503	-0.01663443
7.504	-0.01500317
7.505	-0.01316305
7.506	-0.01125351
7.507	-0.009407803
7.508	-0.007766235
7.509	-0.006432248
7.51	-0.00554083
7.511	-0.005179892
7.512	-0.00539467
7.513	-0.006185208
7.514	-0.007533798
7.515	-0.009390191
7.516	-0.01166888
7.517	-0.01424237
7.518	-0.01693222
7.519	-0.01958715
7.52	-0.02202993
7.521	-0.02409696
7.522	-0.0256298
7.523	-0.02647434
7.524	-0.02653488
7.525	-0.02574659
7.526	-0.02409075
7.527	-0.02159437
7.528	-0.01833997
7.529	-0.01444448
7.53	-0.01007526
7.531	-0.005419658
7.532	-0.0006928773
7.533	0.003853995
7.534	0.007999491
7.535	0.01153138
7.536	0.0142723
7.537	0.0160723
7.538	0.01681356
7.539	0.01644056
7.54	0.01497808
7.541	0.0124946
7.542	0.009103314
7.543	0.004976428
7.544	0.000302692
7.545	-0.004658093
7.546	-0.009658527
7.547	-0.014453
7.548	-0.01878614
7.549	-0.02246259
7.55	-0.02529625
7.551	-0.02716258
7.552	-0.02798558
7.553	-0.02773608
7.554	-0.02646118
7.555	-0.02426962
7.556	-0.02130481
7.557	-0.01773878
7.558	-0.01377696
7.559	-0.009640643
7.56	-0.005579479
7.561	-0.001805856
7.562	0.00150171
7.563	0.004194612
7.564	0.006163213
7.565	0.007335342
7.566	0.007698777
7.567	0.007295601
7.568	0.006223596
7.569	0.004598767
7.57	0.002590684
7.571	0.0003739512
7.572	-0.001870784
7.573	-0.003951461
7.574	-0.005720003
7.575	-0.007013085
7.576	-0.007722163
7.577	-0.007785586
7.578	-0.00718254
7.579	-0.005958896
7.58	-0.004170037
7.581	-0.001916082
7.582	0.0006672967
7.583	0.003416608
7.584	0.006133049
7.585	0.0086427
7.586	0.01078734
7.587	0.01243419
7.588	0.01348974
7.589	0.01384652
7.59	0.01347809
7.591	0.01240134
7.592	0.0106916
7.593	0.008501923
7.594	0.005938626
7.595	0.003193672
7.596	0.0004611765
7.597	-0.002043049
7.598	-0.004068107
7.599	-0.005453315
7.6	-0.006016985
7.601	-0.005632642
7.602	-0.004217651
7.603	-0.001736958
7.604	0.001777142
7.605	0.006247747
7.606	0.01154356
7.607	0.01747071
7.608	0.02375543
7.609	0.0301568
7.61	0.03639945
7.611	0.04221411
7.612	0.04731425
7.613	0.05138284
7.614	0.05423273
7.615	0.0557156
7.616	0.05573617
7.617	0.05423154
7.618	0.0511738
7.619	0.04667305
7.62	0.04091495
7.621	0.03411236
7.622	0.02649966
7.623	0.01834293
7.624	0.009972606
7.625	0.001725096
7.626	-0.006101876
7.627	-0.0132459
7.628	-0.01948181
7.629	-0.02457832
7.63	-0.02842358
7.631	-0.030961
7.632	-0.03219458
7.633	-0.03221321
7.634	-0.03107033
7.635	-0.02900363
7.636	-0.02624028
7.637	-0.02302102
7.638	-0.01963618
7.639	-0.01626894
7.64	-0.0132394
7.641	-0.01077862
7.642	-0.009060282
7.643	-0.008226659
7.644	-0.008308618
7.645	-0.009375458
7.646	-0.01140546
7.647	-0.01430159
7.648	-0.01789381
7.649	-0.02200073
7.65	-0.02642215
7.651	-0.03094106
7.652	-0.03531188
7.653	-0.03924543
7.654	-0.0425601
7.655	-0.04506477
7.656	-0.04661758
7.657	-0.0470998
7.658	-0.04640258
7.659	-0.04455875
7.66	-0.04161713
7.661	-0.03767028
7.662	-0.03283718
7.663	-0.02726184
7.664	-0.02117577
7.665	-0.01480779
7.666	-0.008378462
7.667	-0.002097702
7.668	0.003835273
7.669	0.009192958
7.67	0.01382199
7.671	0.01760663
7.672	0.02047167
7.673	0.02239741
7.674	0.02333593
7.675	0.02338057
7.676	0.02263215
7.677	0.0212163
7.678	0.01931304
7.679	0.017034
7.68	0.01462827
7.681	0.01229438
7.682	0.01020556
7.683	0.008534388
7.684	0.007374313
7.685	0.006878632
7.686	0.007123926
7.687	0.008123311
7.688	0.009829725
7.689	0.0121729
7.69	0.01506381
7.691	0.01837202
7.692	0.0219171
7.693	0.02545629
7.694	0.02881016
7.695	0.03177268
7.696	0.03416099
7.697	0.03579675
7.698	0.03649821
7.699	0.03618488
7.7	0.03479896
7.701	0.0323351
7.702	0.02883254
7.703	0.02438351
7.704	0.01913034
7.705	0.0132626
7.706	0.006989133
7.707	0.0005495101
7.708	-0.005770884
7.709	-0.01172375
7.71	-0.0170654
7.711	-0.02158594
7.712	-0.02509244
7.713	-0.02740901
7.714	-0.02841935
7.715	-0.02810176
7.716	-0.0264758
7.717	-0.02360523
7.718	-0.01962522
7.719	-0.01464908
7.72	-0.008928806
7.721	-0.00270838
7.722	0.003742711
7.723	0.01008744
7.724	0.01612252
7.725	0.02155083
7.726	0.0261355
7.727	0.02965431
7.728	0.0318721
7.729	0.03271606
7.73	0.03211716
7.731	0.03006685
7.732	0.02659369
7.733	0.02177112
7.734	0.01574001
7.735	0.008715942
7.736	0.0009257191
7.737	-0.007374656
7.738	-0.01586396
7.739	-0.02430607
7.74	-0.03239967
7.741	-0.03988167
7.742	-0.04648084
7.743	-0.05188265
7.744	-0.05596045
7.745	-0.05859302
7.746	-0.05970303
7.747	-0.05921451
7.748	-0.05704362
7.749	-0.0532832
7.75	-0.04808863
7.751	-0.04162159
7.752	-0.03403689
7.753	-0.02550152
7.754	-0.01625246
7.755	-0.00657698
7.756	0.003270051
7.757	0.01304625
7.758	0.02249218
7.759	0.03140293
7.76	0.0395915
7.761	0.04690158
7.762	0.0531714
7.763	0.05821514
7.764	0.06197183
7.765	0.0644637
7.766	0.06570297
7.767	0.06566306
7.768	0.06428298
7.769	0.06162733
7.77	0.05786288
7.771	0.05311086
7.772	0.04744029
7.773	0.04089098
7.774	0.03359268
7.775	0.02574094
7.776	0.01748968
7.777	0.008963469
7.778	0.000280846
7.779	-0.008390955
7.78	-0.01690053
7.781	-0.02510446
7.782	-0.03285209
7.783	-0.03998143
7.784	-0.04632154
7.785	-0.05181688
7.786	-0.05638961
7.787	-0.05993544
7.788	-0.06234466
7.789	-0.06353142
7.79	-0.06358911
7.791	-0.06257265
7.792	-0.06050792
7.793	-0.05742564
7.794	-0.05339164
7.795	-0.04862785
7.796	-0.04330783
7.797	-0.03757242
7.798	-0.03155642
7.799	-0.02542157
7.8	-0.01938031
7.801	-0.01359738
7.802	-0.008200509
7.803	-0.003285532
7.804	0.001024866
7.805	0.004679436
7.806	0.007648402
7.807	0.009926827
7.808	0.01155257
7.809	0.01250981
7.81	0.01292291
7.811	0.01289068
7.812	0.01250548
7.813	0.01188463
7.814	0.01105621
7.815	0.01018582
7.816	0.009379584
7.817	0.008712004
7.818	0.008257449
7.819	0.007988032
7.82	0.007975018
7.821	0.008235836
7.822	0.008760873
7.823	0.009538011
7.824	0.01046499
7.825	0.01151163
7.826	0.01262811
7.827	0.01376756
7.828	0.01490558
7.829	0.0159411
7.83	0.01684551
7.831	0.01759736
7.832	0.01820334
7.833	0.0187168
7.834	0.01911284
7.835	0.01944396
7.836	0.01976471
7.837	0.02015137
7.838	0.02071676
7.839	0.02148804
7.84	0.02255203
7.841	0.02397107
7.842	0.02579628
7.843	0.02807383
7.844	0.03077297
7.845	0.03389415
7.846	0.03739806
7.847	0.04121003
7.848	0.04522111
7.849	0.04928969
7.85	0.05330575
7.851	0.05713698
7.852	0.06062755
7.853	0.06359978
7.854	0.06593236
7.855	0.067557
7.856	0.06841033
7.857	0.06842331
7.858	0.06751417
7.859	0.06579121
7.86	0.06337233
7.861	0.06037608
7.862	0.05688032
7.863	0.0528767
7.864	0.04872466
7.865	0.0446152
7.866	0.04070769
7.867	0.03702974
7.868	0.03337152
7.869	0.03009353
7.87	0.0271465
7.871	0.02445531
7.872	0.02176031
7.873	0.01847527
7.874	0.01472673
7.875	0.01011723
7.876	0.004318771
7.877	-0.003089905
7.878	-0.01272934
7.879	-0.02458799
7.88	-0.03904491
7.881	-0.05627864
7.882	-0.07634081
7.883	-0.09915519
7.884	-0.1244461
7.885	-0.1520483
7.886	-0.1815566
7.887	-0.2122422
7.888	-0.2429408
7.889	-0.2729851
7.89	-0.3016341
7.891	-0.328021
7.892	-0.3509365
7.893	-0.3686878
7.894	-0.3806904
7.895	-0.3863271
7.896	-0.385034
7.897	-0.3760696
7.898	-0.3584518
7.899	-0.3324436
7.9	-0.2983933
7.901	-0.2567883
7.902	-0.2081426
7.903	-0.1530463
7.904	-0.09289472
7.905	-0.02905727
7.906	0.0370205
7.907	0.1037734
7.908	0.1694389
7.909	0.2321573
7.91	0.2905628
7.911	0.343306
7.912	0.3889451
7.913	0.4259693
7.914	0.4532626
7.915	0.4707602
7.916	0.4783638
7.917	0.4759057
7.918	0.4633249
7.919	0.4409667
7.92	0.4103863
7.921	0.3728955
7.922	0.3296566
7.923	0.2819268
7.924	0.2310679
7.925	0.1791563
7.926	0.1278504
7.927	0.078544
7.928	0.03251615
7.929	-0.009043575
7.93	-0.04512496
7.931	-0.07504465
7.932	-0.09836972
7.933	-0.1149669
7.934	-0.1246239
7.935	-0.1280275
7.936	-0.1258282
7.937	-0.1187228
7.938	-0.1076693
7.939	-0.09317338
7.94	-0.07678503
7.941	-0.05965362
7.942	-0.04272659
7.943	-0.02699254
7.944	-0.01280248
7.945	-0.001190567
7.946	0.007283763
7.947	0.01234913
7.948	0.01388208
7.949	0.01218282
7.95	0.007349501
7.951	-0.0002867626
7.952	-0.01023278
7.953	-0.02183764
7.954	-0.03446033
7.955	-0.04739489
7.956	-0.06000875
7.957	-0.07169751
7.958	-0.08182015
7.959	-0.09003723
7.96	-0.09594085
7.961	-0.09930847
7.962	-0.1000247
7.963	-0.09803657
7.964	-0.09356489
7.965	-0.08685321
7.966	-0.0782219
7.967	-0.06803591
7.968	-0.05671404
7.969	-0.04473736
7.97	-0.03262352
7.971	-0.02081604
7.972	-0.009706723
7.973	0.0003344525
7.974	0.009014972
7.975	0.01609934
7.976	0.02145407
7.977	0.02501955
7.978	0.02680976
7.979	0.02686943
7.98	0.02540939
7.981	0.02264603
7.982	0.01881296
7.983	0.01420476
7.984	0.009007147
7.985	0.003601498
7.986	-0.001725854
7.987	-0.006732869
7.988	-0.01116355
7.989	-0.01493861
7.99	-0.01784784
7.991	-0.01978615
7.992	-0.02070325
7.993	-0.02057221
7.994	-0.01947083
7.995	-0.01745168
7.996	-0.01460713
7.997	-0.01105783
7.998	-0.006965842
7.999	-0.002454605
8	0.002295341
8.001	0.007126011
8.002	0.01186981
8.003	0.01630999
8.004	0.02036999
8.005	0.0238984
8.006	0.02678125
8.007	0.02889585
8.008	0.03008136
8.009	0.03032339
8.01	0.02958134
8.011	0.02783718
8.012	0.02507177
8.013	0.02126893
8.014	0.01649205
8.015	0.01084438
8.016	0.004437426
8.017	-0.002596997
8.018	-0.01007785
8.019	-0.01783627
8.02	-0.02565577
8.021	-0.03332378
8.022	-0.04060041
8.023	-0.04719546
8.024	-0.0529052
8.025	-0.05755574
8.026	-0.06099067
8.027	-0.06304834
8.028	-0.06356787
8.029	-0.06249396
8.03	-0.05989238
8.031	-0.05584186
8.032	-0.05043553
8.033	-0.04381039
8.034	-0.03615973
8.035	-0.02779525
8.036	-0.01900556
8.037	-0.01007621
8.038	-0.001315204
8.039	0.006984052
8.04	0.01452907
8.041	0.0210831
8.042	0.02644857
8.043	0.03047041
8.044	0.03301732
8.045	0.03410122
8.046	0.0337676
8.047	0.03210442
8.048	0.0292783
8.049	0.02540043
8.05	0.02077854
8.051	0.01568321
8.052	0.01038593
8.053	0.005208206
8.054	0.0003217865
8.055	-0.003965347
8.056	-0.007434997
8.057	-0.009912097
8.058	-0.01123063
8.059	-0.01138794
8.06	-0.01034617
8.061	-0.008138095
8.062	-0.004839553
8.063	-0.0005638502
8.064	0.004492868
8.065	0.01011898
8.066	0.01610017
8.067	0.02221856
8.068	0.02824138
8.069	0.03394789
8.07	0.03913103
8.071	0.04362778
8.072	0.04730597
8.073	0.05005975
8.074	0.05182419
8.075	0.05260978
8.076	0.05245511
8.077	0.05142389
8.078	0.0496185
8.079	0.04714377
8.08	0.04420108
8.081	0.04096549
8.082	0.03759859
8.083	0.03426886
8.084	0.03110943
8.085	0.02830254
8.086	0.02597053
8.087	0.02418953
8.088	0.02299627
8.089	0.02241946
8.09	0.02245779
8.091	0.02307008
8.092	0.02417021
8.093	0.02561059
8.094	0.02732779
8.095	0.02917375
8.096	0.03101313
8.097	0.03269312
8.098	0.03400969
8.099	0.03493747
8.1	0.03535203
8.101	0.03517589
8.102	0.03433336
8.103	0.03271443
8.104	0.03041935
8.105	0.02745016
8.106	0.02384826
8.107	0.01965307
8.108	0.01487519
8.109	0.009698249
8.11	0.004201198
8.111	-0.001520891
8.112	-0.007382311
8.113	-0.01332295
8.114	-0.0191717
8.115	-0.02487663
8.116	-0.03037321
8.117	-0.03559591
8.118	-0.04049133
8.119	-0.04494573
8.12	-0.04897742
8.121	-0.05257372
8.122	-0.05569775
8.123	-0.05830594
8.124	-0.06033332
8.125	-0.06184818
8.126	-0.062873
8.127	-0.06339186
8.128	-0.06337124
8.129	-0.06279156
8.13	-0.06174386
8.131	-0.06027722
8.132	-0.05840528
8.133	-0.05612377
8.134	-0.05346195
8.135	-0.05051042
8.136	-0.04733318
8.137	-0.04397297
8.138	-0.04046182
8.139	-0.03685782
8.14	-0.03322334
8.141	-0.02961282
8.142	-0.02607925
8.143	-0.0226786
8.144	-0.0194733
8.145	-0.01648764
8.146	-0.01375587
8.147	-0.01132835
8.148	-0.009267396
8.149	-0.007638347
8.15	-0.006437742
8.151	-0.005680819
8.152	-0.005397874
8.153	-0.005614888
8.154	-0.006390688
8.155	-0.007683589
8.156	-0.009467053
8.157	-0.01170623
8.158	-0.0143211
8.159	-0.0173267
8.16	-0.02061354
8.161	-0.02408146
8.162	-0.027596
8.163	-0.0309438
8.164	-0.03408324
8.165	-0.03685855
8.166	-0.03913134
8.167	-0.04072894
8.168	-0.04140837
8.169	-0.04115328
8.17	-0.03987593
8.171	-0.0375212
8.172	-0.03402352
8.173	-0.0292894
8.174	-0.02344309
8.175	-0.01656618
8.176	-0.008773113
8.177	-0.0001886721
8.178	0.009055791
8.179	0.01868846
8.18	0.0285091
8.181	0.03830183
8.182	0.04783903
8.183	0.05688658
8.184	0.06516836
8.185	0.07255481
8.186	0.07891035
8.187	0.08409247
8.188	0.08797126
8.189	0.09043827
8.19	0.09158624
8.191	0.09148205
8.192	0.09017324
8.193	0.08771891
8.194	0.08421814
8.195	0.07994022
8.196	0.07509379
8.197	0.06983799
8.198	0.06430592
8.199	0.05868234
8.2	0.05320191
8.201	0.04802797
8.202	0.04325338
8.203	0.03889768
8.204	0.03507301
8.205	0.03179928
8.206	0.02906342
8.207	0.02679854
8.208	0.02485409
8.209	0.02323634
8.21	0.02177827
8.211	0.02034865
8.212	0.01881417
8.213	0.01699839
8.214	0.01492413
8.215	0.01244045
8.216	0.009479751
8.217	0.006017367
8.218	0.002034774
8.219	-0.002310058
8.22	-0.007006636
8.221	-0.01197101
8.222	-0.01707659
8.223	-0.02218262
8.224	-0.0270552
8.225	-0.03160429
8.226	-0.03571217
8.227	-0.03925106
8.228	-0.04210521
8.229	-0.04415292
8.23	-0.0454163
8.231	-0.04591333
8.232	-0.04566459
8.233	-0.04470866
8.234	-0.0431155
8.235	-0.04105479
8.236	-0.0386707
8.237	-0.03608209
8.238	-0.03338922
8.239	-0.03071687
8.24	-0.02820749
8.241	-0.02595382
8.242	-0.02399677
8.243	-0.0223252
8.244	-0.02094887
8.245	-0.01983822
8.246	-0.01893764
8.247	-0.01816348
8.248	-0.01740273
8.249	-0.0165796
8.25	-0.0155818
8.251	-0.01432543
8.252	-0.01275476
8.253	-0.01084264
8.254	-0.00859948
8.255	-0.006021737
8.256	-0.003156346
8.257	-0.0001030193
8.258	0.00298703
8.259	0.005964119
8.26	0.00870662
8.261	0.01107622
8.262	0.01291598
8.263	0.01405982
8.264	0.0143813
8.265	0.01382662
8.266	0.01236518
8.267	0.009995227
8.268	0.006763186
8.269	0.002734699
8.27	-0.00193833
8.271	-0.00708813
8.272	-0.01251381
8.273	-0.01796042
8.274	-0.02322636
8.275	-0.02807704
8.276	-0.03230395
8.277	-0.03570268
8.278	-0.03806358
8.279	-0.03928571
8.28	-0.03931276
8.281	-0.03813121
8.282	-0.03575659
8.283	-0.03223887
8.284	-0.02772296
8.285	-0.02241554
8.286	-0.01652841
8.287	-0.01027688
8.288	-0.003887886
8.289	0.00237626
8.29	0.008264501
8.291	0.01356913
8.292	0.01812409
8.293	0.02180951
8.294	0.02450856
8.295	0.02620916
8.296	0.02693735
8.297	0.02676211
8.298	0.02581186
8.299	0.02420688
8.3	0.02218607
8.301	0.01996182
8.302	0.01772868
8.303	0.01567588
8.304	0.01396331
8.305	0.01279086
8.306	0.01227807
8.307	0.01246565
8.308	0.01331393
8.309	0.01477908
8.31	0.01678172
8.311	0.01918705
8.312	0.02179602
8.313	0.02433842
8.314	0.02660498
8.315	0.02836434
8.316	0.02941206
8.317	0.02956165
8.318	0.02864778
8.319	0.02659432
8.32	0.02336708
8.321	0.01900258
8.322	0.01361137
8.323	0.007392083
8.324	0.0005713885
8.325	-0.006581331
8.326	-0.01377297
8.327	-0.02067187
8.328	-0.02690052
8.329	-0.03214496
8.33	-0.03614575
8.331	-0.03869342
8.332	-0.03961999
8.333	-0.03881604
8.334	-0.03624063
8.335	-0.03200458
8.336	-0.02626898
8.337	-0.01926161
8.338	-0.0113143
8.339	-0.002719175
8.34	0.006100115
8.341	0.01475036
8.342	0.02283117
8.343	0.02990402
8.344	0.0356754
8.345	0.03985312
8.346	0.04223668
8.347	0.04268773
8.348	0.04113234
8.349	0.03761196
8.35	0.03229002
8.351	0.02538373
8.352	0.0171715
8.353	0.008028039
8.354	-0.0017101
8.355	-0.01158816
8.356	-0.02119613
8.357	-0.03012765
8.358	-0.03794213
8.359	-0.04436984
8.36	-0.04913675
8.361	-0.05206283
8.362	-0.05302155
8.363	-0.05193101
8.364	-0.0488705
8.365	-0.0440169
8.366	-0.03758819
8.367	-0.02983513
8.368	-0.02106412
8.369	-0.01161434
8.37	-0.001909463
8.371	0.007679364
8.372	0.01681018
8.373	0.02514265
8.374	0.03242021
8.375	0.03841078
8.376	0.04296544
8.377	0.04599097
8.378	0.04744384
8.379	0.04737081
8.38	0.045932
8.381	0.04330482
8.382	0.03967671
8.383	0.03526291
8.384	0.03029002
8.385	0.02508646
8.386	0.01991016
8.387	0.01496273
8.388	0.01041315
8.389	0.006385209
8.39	0.003025076
8.391	0.0003951257
8.392	-0.001508237
8.393	-0.002743526
8.394	-0.00338339
8.395	-0.003540985
8.396	-0.003342791
8.397	-0.002925184
8.398	-0.002441632
8.399	-0.001985355
8.4	-0.001705838
8.401	-0.001695645
8.402	-0.002004661
8.403	-0.002659565
8.404	-0.003600812
8.405	-0.004827489
8.406	-0.00628399
8.407	-0.007880341
8.408	-0.009512611
8.409	-0.0110382
8.41	-0.0123823
8.411	-0.01346568
8.412	-0.01421667
8.413	-0.01458239
8.414	-0.01452944
8.415	-0.01408074
8.416	-0.01327718
8.417	-0.01217677
8.418	-0.0108535
8.419	-0.009410302
8.42	-0.0079577
8.421	-0.006598863
8.422	-0.005422108
8.423	-0.004493355
8.424	-0.003881286
8.425	-0.003617276
8.426	-0.003704689
8.427	-0.004114285
8.428	-0.00478132
8.429	-0.005625963
8.43	-0.00654388
8.431	-0.007427049
8.432	-0.008168855
8.433	-0.008673813
8.434	-0.008825188
8.435	-0.008542529
8.436	-0.007778474
8.437	-0.006535229
8.438	-0.004883993
8.439	-0.002851428
8.44	-0.0005356718
8.441	0.001939954
8.442	0.004405284
8.443	0.00662863
8.444	0.008456414
8.445	0.009705234
8.446	0.0102166
8.447	0.009844696
8.448	0.008461748
8.449	0.006006246
8.45	0.002466108
8.451	-0.002116792
8.452	-0.007635708
8.453	-0.01389364
8.454	-0.02071822
8.455	-0.0278632
8.456	-0.03506255
8.457	-0.04199829
8.458	-0.048274
8.459	-0.05363893
8.46	-0.05783376
8.461	-0.06063949
8.462	-0.06184289
8.463	-0.06122903
8.464	-0.05878133
8.465	-0.05455129
8.466	-0.04864154
8.467	-0.04118848
8.468	-0.03237344
8.469	-0.02250989
8.47	-0.01195747
8.471	-0.001070812
8.472	0.00979722
8.473	0.02028479
8.474	0.0300256
8.475	0.03872869
8.476	0.04615813
8.477	0.05212055
8.478	0.05647032
8.479	0.05913193
8.48	0.06020315
8.481	0.0598032
8.482	0.05806558
8.483	0.05515718
8.484	0.05128514
8.485	0.04680614
8.486	0.04200919
8.487	0.03712144
8.488	0.03233121
8.489	0.02779483
8.49	0.02372062
8.491	0.02021405
8.492	0.01729633
8.493	0.01492734
8.494	0.01300989
8.495	0.01144835
8.496	0.01011506
8.497	0.008876169
8.498	0.007613929
8.499	0.006177664
8.5	0.004440077
8.501	0.002334249
8.502	-0.0001222606
8.503	-0.002813186
8.504	-0.005656233
8.505	-0.008544412
8.506	-0.01131058
8.507	-0.01371395
8.508	-0.01544488
8.509	-0.01627816
8.51	-0.01603367
8.511	-0.0145518
8.512	-0.01169459
8.513	-0.007368436
8.514	-0.001586539
8.515	0.00554116
8.516	0.01384336
8.517	0.02307496
8.518	0.03289618
8.519	0.04293948
8.52	0.05281528
8.521	0.06212932
8.522	0.07046812
8.523	0.07739801
8.524	0.08260353
8.525	0.08588947
8.526	0.08711926
8.527	0.08620039
8.528	0.08309217
8.529	0.07799557
8.53	0.07123677
8.531	0.06315985
8.532	0.05409402
8.533	0.04432761
8.534	0.03447951
8.535	0.02505251
8.536	0.01646285
8.537	0.00895851
8.538	0.002527878
8.539	-0.002395192
8.54	-0.005813713
8.541	-0.007822639
8.542	-0.008743937
8.543	-0.009255393
8.544	-0.009472719
8.545	-0.01004201
8.546	-0.01153592
8.547	-0.01458601
8.548	-0.01996389
8.549	-0.02795019
8.55	-0.03910838
8.551	-0.05373566
8.552	-0.07189648
8.553	-0.09338488
8.554	-0.1179419
8.555	-0.1452375
8.556	-0.1746734
8.557	-0.2052608
8.558	-0.2354837
8.559	-0.2644722
8.56	-0.2911707
8.561	-0.314477
8.562	-0.3330145
8.563	-0.3450032
8.564	-0.3498377
8.565	-0.3469094
8.566	-0.3357904
8.567	-0.316036
8.568	-0.2871624
8.569	-0.2497967
8.57	-0.204717
8.571	-0.1528862
8.572	-0.09540183
8.573	-0.03357604
8.574	0.03082004
8.575	0.09608237
8.576	0.1605075
8.577	0.2222945
8.578	0.2794694
8.579	0.3303532
8.58	0.3738748
8.581	0.409067
8.582	0.4349374
8.583	0.4505117
8.584	0.4554268
8.585	0.450348
8.586	0.4358856
8.587	0.4125678
8.588	0.3810154
8.589	0.342243
8.59	0.2981796
8.591	0.2504245
8.592	0.2003491
8.593	0.1492968
8.594	0.09863735
8.595	0.05001163
8.596	0.00465671
8.597	-0.0364608
8.598	-0.07256358
8.599	-0.1029406
8.6	-0.1273791
8.601	-0.1458128
8.602	-0.1582867
8.603	-0.1650597
8.604	-0.1662297
8.605	-0.1628396
8.606	-0.1556921
8.607	-0.1454586
8.608	-0.1328987
8.609	-0.1183705
8.61	-0.1031232
8.611	-0.08796507
8.612	-0.07343981
8.613	-0.06002684
8.614	-0.04783052
8.615	-0.03744254
8.616	-0.02911672
8.617	-0.02289349
8.618	-0.01868136
8.619	-0.0162915
8.62	-0.01557338
8.621	-0.01629917
8.622	-0.01817617
8.623	-0.02080833
8.624	-0.02399262
8.625	-0.0273032
8.626	-0.03043214
8.627	-0.03312091
8.628	-0.03507605
8.629	-0.03629732
8.63	-0.03653662
8.631	-0.03569605
8.632	-0.03375432
8.633	-0.03071043
8.634	-0.02675664
8.635	-0.02194124
8.636	-0.01638799
8.637	-0.0102684
8.638	-0.003795069
8.639	0.00279377
8.64	0.009312231
8.641	0.0155747
8.642	0.02138074
8.643	0.02650024
8.644	0.03077998
8.645	0.03410989
8.646	0.03640294
8.647	0.03757429
8.648	0.03754191
8.649	0.03629999
8.65	0.03392779
8.651	0.03050826
8.652	0.02613052
8.653	0.0209152
8.654	0.01499927
8.655	0.008613846
8.656	0.001964813
8.657	-0.004743744
8.658	-0.0112817
8.659	-0.017457
8.66	-0.02305541
8.661	-0.02790204
8.662	-0.03184092
8.663	-0.03473142
8.664	-0.03647909
8.665	-0.03707545
8.666	-0.03653585
8.667	-0.03490083
8.668	-0.03225968
8.669	-0.02870646
8.67	-0.02446644
8.671	-0.01974478
8.672	-0.01474674
8.673	-0.009706777
8.674	-0.004810441
8.675	-0.0003120904
8.676	0.003594114
8.677	0.006753297
8.678	0.00903894
8.679	0.01037893
8.68	0.01073897
8.681	0.01013638
8.682	0.00863633
8.683	0.006365118
8.684	0.003432896
8.685	4.073149e-005
8.686	-0.003617564
8.687	-0.00733626
8.688	-0.01087089
8.689	-0.01408961
8.69	-0.01679207
8.691	-0.01883542
8.692	-0.02010156
8.693	-0.02047254
8.694	-0.01997739
8.695	-0.01861721
8.696	-0.01644102
8.697	-0.01351832
8.698	-0.009927563
8.699	-0.00583689
8.7	-0.001395035
8.701	0.003250902
8.702	0.007962742
8.703	0.01260791
8.704	0.01705321
8.705	0.02119791
8.706	0.0249659
8.707	0.02829367
8.708	0.03112041
8.709	0.0334318
8.71	0.03525183
8.711	0.03660419
8.712	0.03749598
8.713	0.03791378
8.714	0.03788866
8.715	0.03748833
8.716	0.03674979
8.717	0.03567303
8.718	0.03422967
8.719	0.03242196
8.72	0.03029088
8.721	0.02785183
8.722	0.02510104
8.723	0.02203188
8.724	0.01865906
8.725	0.01502998
8.726	0.01119297
8.727	0.00720947
8.728	0.003166614
8.729	-0.0008456015
8.73	-0.004740365
8.731	-0.008418877
8.732	-0.0117607
8.733	-0.01462463
8.734	-0.01689356
8.735	-0.01851142
8.736	-0.01941963
8.737	-0.01955629
8.738	-0.01887149
8.739	-0.01734719
8.74	-0.01506055
8.741	-0.01208838
8.742	-0.008516635
8.743	-0.004461579
8.744	-4.24922e-005
8.745	0.004553914
8.746	0.009158914
8.747	0.01360665
8.748	0.01772008
8.749	0.02136266
8.75	0.02440405
8.751	0.02674575
8.752	0.02830881
8.753	0.02903301
8.754	0.02892092
8.755	0.02803366
8.756	0.02644574
8.757	0.02423904
8.758	0.02150759
8.759	0.01840179
8.76	0.01510691
8.761	0.01178107
8.762	0.008549558
8.763	0.005501713
8.764	0.002778332
8.765	0.0004757784
8.766	-0.001353236
8.767	-0.002712736
8.768	-0.003679522
8.769	-0.004253551
8.77	-0.004536321
8.771	-0.004636808
8.772	-0.004692339
8.773	-0.004889077
8.774	-0.005298226
8.775	-0.00608194
8.776	-0.007352671
8.777	-0.00919356
8.778	-0.01167245
8.779	-0.01474749
8.78	-0.01842784
8.781	-0.02265701
8.782	-0.02732311
8.783	-0.03226443
8.784	-0.0372857
8.785	-0.04223734
8.786	-0.04694498
8.787	-0.05120658
8.788	-0.05479524
8.789	-0.05754744
8.79	-0.05937339
8.791	-0.06020127
8.792	-0.05996718
8.793	-0.05862021
8.794	-0.05621088
8.795	-0.05286334
8.796	-0.04871154
8.797	-0.04389199
8.798	-0.03854935
8.799	-0.03289618
8.8	-0.02715604
8.801	-0.02152319
8.802	-0.01616119
8.803	-0.01120192
8.804	-0.006809506
8.805	-0.003070782
8.806	-3.691339e-005
8.807	0.002280937
8.808	0.003926767
8.809	0.004887744
8.81	0.005283251
8.811	0.005222506
8.812	0.004823637
8.813	0.004244071
8.814	0.003521877
8.815	0.00283212
8.816	0.002291078
8.817	0.00199063
8.818	0.002035296
8.819	0.002380133
8.82	0.00309733
8.821	0.004198461
8.822	0.005670951
8.823	0.007508572
8.824	0.009587079
8.825	0.01187773
8.826	0.01432456
8.827	0.01686845
8.828	0.01946342
8.829	0.02200727
8.83	0.02447195
8.831	0.02682607
8.832	0.029042
8.833	0.03109883
8.834	0.03297439
8.835	0.03469289
8.836	0.0362691
8.837	0.03770177
8.838	0.03896831
8.839	0.04008548
8.84	0.04108449
8.841	0.04197226
8.842	0.04271682
8.843	0.04323899
8.844	0.04353331
8.845	0.04358677
8.846	0.04336676
8.847	0.04280475
8.848	0.04179071
8.849	0.04031139
8.85	0.0383423
8.851	0.0358636
8.852	0.03284905
8.853	0.02926617
8.854	0.02517443
8.855	0.0206192
8.856	0.01566873
8.857	0.0104113
8.858	0.004956084
8.859	-0.0005325433
8.86	-0.005936531
8.861	-0.01112097
8.862	-0.01593401
8.863	-0.02021566
8.864	-0.02379328
8.865	-0.02660087
8.866	-0.02857081
8.867	-0.02964039
8.868	-0.02977557
8.869	-0.02893715
8.87	-0.02723191
8.871	-0.02475903
8.872	-0.02162872
8.873	-0.01799398
8.874	-0.01396397
8.875	-0.009765552
8.876	-0.005589117
8.877	-0.001615095
8.878	0.001960691
8.879	0.005027296
8.88	0.007437015
8.881	0.009093951
8.882	0.009931893
8.883	0.009906428
8.884	0.009042162
8.885	0.007396189
8.886	0.00505049
8.887	0.002107308
8.888	-0.001299875
8.889	-0.005045991
8.89	-0.008957104
8.891	-0.01287967
8.892	-0.01666373
8.893	-0.02014155
8.894	-0.02323133
8.895	-0.02582404
8.896	-0.0278474
8.897	-0.02923836
8.898	-0.02992502
8.899	-0.02993957
8.9	-0.02931064
8.901	-0.02808018
8.902	-0.02628319
8.903	-0.0239439
8.904	-0.02114871
8.905	-0.01799145
8.906	-0.01455225
8.907	-0.01089647
8.908	-0.007086043
8.909	-0.003184054
8.91	0.0007372141
8.911	0.004618483
8.912	0.008397207
8.913	0.01199006
8.914	0.01536108
8.915	0.01847281
8.916	0.02128172
8.917	0.02371597
8.918	0.02566442
8.919	0.02708879
8.92	0.02797118
8.921	0.02827905
8.922	0.0279505
8.923	0.02689861
8.924	0.02510331
8.925	0.02259253
8.926	0.01938831
8.927	0.01550942
8.928	0.01099118
8.929	0.005893345
8.93	0.0003303567
8.931	-0.005579931
8.932	-0.01169607
8.933	-0.01782987
8.934	-0.02382747
8.935	-0.02952133
8.936	-0.03474518
8.937	-0.03931057
8.938	-0.04299995
8.939	-0.0456648
8.94	-0.04722368
8.941	-0.04760622
8.942	-0.04674658
8.943	-0.04460328
8.944	-0.04118779
8.945	-0.03663673
8.946	-0.03108993
8.947	-0.02470736
8.948	-0.01770164
8.949	-0.01028738
8.95	-0.002765059
8.951	0.004592833
8.952	0.01151861
8.953	0.01773477
8.954	0.0229954
8.955	0.02710328
8.956	0.02991157
8.957	0.03132041
8.958	0.03129869
8.959	0.02981614
8.96	0.02701189
8.961	0.02304611
8.962	0.01812632
8.963	0.0125511
8.964	0.006538182
8.965	0.0004654595
8.966	-0.005339743
8.967	-0.01056209
8.968	-0.01486714
8.969	-0.01805403
8.97	-0.01989073
8.971	-0.02023939
8.972	-0.01903457
8.973	-0.01628533
8.974	-0.01208679
8.975	-0.00661267
8.976	-8.757249e-005
8.977	0.007204502
8.978	0.01489706
8.979	0.02265852
8.98	0.03010195
8.981	0.03688271
8.982	0.04267397
8.983	0.04715346
8.984	0.05011243
8.985	0.05140243
8.986	0.05095704
8.987	0.04877978
8.988	0.0449571
8.989	0.03965116
8.99	0.03314493
8.991	0.02574219
8.992	0.01777897
8.993	0.009646183
8.994	0.00171678
8.995	-0.005598706
8.996	-0.01196206
8.997	-0.01709258
8.998	-0.02076754
8.999	-0.02280224
9	-0.02312949
9.001	-0.02176767
9.002	-0.01883218
9.003	-0.01457038
9.004	-0.009169389
9.005	-0.003002938
9.006	0.0035611
9.007	0.0101194
9.008	0.01618956
9.009	0.02146491
9.01	0.02553802
9.011	0.02810764
9.012	0.02893854
9.013	0.02784612
9.014	0.02481531
9.015	0.01987082
9.016	0.01314311
9.017	0.004862699
9.018	-0.004619878
9.019	-0.01493398
9.02	-0.0256362
9.021	-0.0362812
9.022	-0.04639296
9.023	-0.05543956
9.024	-0.0630335
9.025	-0.0688235
9.026	-0.07254758
9.027	-0.07400186
9.028	-0.07304237
9.029	-0.06969824
9.03	-0.06414391
9.031	-0.05661617
9.032	-0.04741023
9.033	-0.0369064
9.034	-0.02554182
9.035	-0.01385504
9.036	-0.002333464
9.037	0.008566743
9.038	0.01840183
9.039	0.02678354
9.04	0.03339901
9.041	0.03804666
9.042	0.04062424
9.043	0.04114581
9.044	0.03964618
9.045	0.03637522
9.046	0.03161788
9.047	0.0257169
9.048	0.01912052
9.049	0.01214921
9.05	0.005318439
9.051	-0.000954378
9.052	-0.006299824
9.053	-0.01035053
9.054	-0.01295103
9.055	-0.01388003
9.056	-0.01305587
9.057	-0.01049591
9.058	-0.006302415
9.059	-0.0006924765
9.06	0.006084884
9.061	0.01373028
9.062	0.02189337
9.063	0.03015291
9.064	0.03817334
9.065	0.04558844
9.066	0.05209203
9.067	0.05739958
9.068	0.06121755
9.069	0.06346667
9.07	0.06408204
9.071	0.06307232
9.072	0.06047542
9.073	0.056341
9.074	0.05091044
9.075	0.04444094
9.076	0.03718867
9.077	0.02938577
9.078	0.0212396
9.079	0.01304953
9.08	0.005071104
9.081	-0.002496161
9.082	-0.009509986
9.083	-0.01588255
9.084	-0.02150128
9.085	-0.02636197
9.086	-0.03048463
9.087	-0.03390809
9.088	-0.03669502
9.089	-0.03889405
9.09	-0.04067605
9.091	-0.04215836
9.092	-0.04340293
9.093	-0.04442934
9.094	-0.04524938
9.095	-0.04596893
9.096	-0.04660804
9.097	-0.04710311
9.098	-0.04732383
9.099	-0.04716804
9.1	-0.04660463
9.101	-0.0455599
9.102	-0.04392304
9.103	-0.04156617
9.104	-0.03841873
9.105	-0.03447617
9.106	-0.0297532
9.107	-0.02429592
9.108	-0.01820266
9.109	-0.01159831
9.11	-0.004645386
9.111	0.002463544
9.112	0.009486914
9.113	0.0161226
9.114	0.02211973
9.115	0.02727094
9.116	0.03137622
9.117	0.03422748
9.118	0.03561811
9.119	0.03543219
9.12	0.03368407
9.121	0.03041467
9.122	0.02569494
9.123	0.01965715
9.124	0.01246297
9.125	0.00441298
9.126	-0.004201439
9.127	-0.01307006
9.128	-0.02182715
9.129	-0.03019397
9.13	-0.03784322
9.131	-0.04450413
9.132	-0.04992461
9.133	-0.0538521
9.134	-0.05618085
9.135	-0.05687085
9.136	-0.05593097
9.137	-0.05339667
9.138	-0.0493393
9.139	-0.04392919
9.14	-0.03744136
9.141	-0.03013626
9.142	-0.02226557
9.143	-0.01409665
9.144	-0.005907467
9.145	0.00198723
9.146	0.009337029
9.147	0.01593739
9.148	0.02161825
9.149	0.02622672
9.15	0.02969208
9.151	0.03198975
9.152	0.03313855
9.153	0.03322007
9.154	0.03227861
9.155	0.03051955
9.156	0.02812554
9.157	0.02528119
9.158	0.02221343
9.159	0.01904102
9.16	0.01603117
9.161	0.01337399
9.162	0.0112193
9.163	0.009711339
9.164	0.008869554
9.165	0.008786587
9.166	0.009482224
9.167	0.01092947
9.168	0.01306878
9.169	0.01576084
9.17	0.01888371
9.171	0.02229583
9.172	0.02584504
9.173	0.02937083
9.174	0.03269227
9.175	0.03565762
9.176	0.03814527
9.177	0.04006619
9.178	0.04137002
9.179	0.04200701
9.18	0.04199772
9.181	0.04139184
9.182	0.04027495
9.183	0.03878089
9.184	0.03701777
9.185	0.03516229
9.186	0.03337273
9.187	0.03179933
9.188	0.0305935
9.189	0.02985259
9.19	0.02968988
9.191	0.0301638
9.192	0.03128402
9.193	0.03301022
9.194	0.03527761
9.195	0.03799452
9.196	0.04103442
9.197	0.04423039
9.198	0.04736404
9.199	0.05029592
9.2	0.05285927
9.201	0.05490507
9.202	0.05627882
9.203	0.05679705
9.204	0.05649838
9.205	0.05537578
9.206	0.05345839
9.207	0.05076017
9.208	0.0472296
9.209	0.04318281
9.21	0.0387738
9.211	0.03415895
9.212	0.02940452
9.213	0.02439576
9.214	0.01951996
9.215	0.01481582
9.216	0.01030388
9.217	0.005854524
9.218	0.00107108
9.219	-0.003856127
9.22	-0.009194154
9.221	-0.01516688
9.222	-0.02208823
9.223	-0.03045376
9.224	-0.04024174
9.225	-0.05179871
9.226	-0.06531293
9.227	-0.08087941
9.228	-0.09850939
9.229	-0.1180245
9.23	-0.1393842
9.231	-0.1623346
9.232	-0.1863517
9.233	-0.2105613
9.234	-0.2344398
9.235	-0.257432
9.236	-0.2788534
9.237	-0.2977264
9.238	-0.3126759
9.239	-0.3231774
9.24	-0.3286981
9.241	-0.3287358
9.242	-0.3226413
9.243	-0.3095718
9.244	-0.2896873
9.245	-0.2632324
9.246	-0.2305718
9.247	-0.1920979
9.248	-0.1482643
9.249	-0.1002216
9.25	-0.0490958
9.251	0.003920695
9.252	0.05754983
9.253	0.1103817
9.254	0.1608521
9.255	0.2078371
9.256	0.2502378
9.257	0.2869162
9.258	0.3167339
9.259	0.3387823
9.26	0.3530603
9.261	0.3595474
9.262	0.3581946
9.263	0.349077
9.264	0.332503
9.265	0.3097919
9.266	0.2820457
9.267	0.2502337
9.268	0.2153892
9.269	0.1785444
9.27	0.1413229
9.271	0.1049752
9.272	0.0705044
9.273	0.03878824
9.274	0.01057775
9.275	-0.01346515
9.276	-0.03295442
9.277	-0.04771266
9.278	-0.05779128
9.279	-0.06321617
9.28	-0.06459546
9.281	-0.06249486
9.282	-0.05748112
9.283	-0.05025393
9.284	-0.04122782
9.285	-0.03146587
9.286	-0.02171261
9.287	-0.01251069
9.288	-0.004348083
9.289	0.00264748
9.29	0.007945351
9.291	0.01134313
9.292	0.01286349
9.293	0.0126709
9.294	0.01110469
9.295	0.008373847
9.296	0.004797871
9.297	0.0007707363
9.298	-0.003250677
9.299	-0.006873931
9.3	-0.009716056
9.301	-0.01149274
9.302	-0.01200561
9.303	-0.01112864
9.304	-0.008853728
9.305	-0.005184737
9.306	-0.0002505429
9.307	0.005702592
9.308	0.01230883
9.309	0.01923614
9.31	0.02613512
9.311	0.03264799
9.312	0.03838426
9.313	0.04290231
9.314	0.04596357
9.315	0.04734926
9.316	0.04692422
9.317	0.04459958
9.318	0.04032064
9.319	0.0342513
9.32	0.02659154
9.321	0.01759639
9.322	0.007556857
9.323	-0.00319808
9.324	-0.01423965
9.325	-0.02517325
9.326	-0.03563691
9.327	-0.04529864
9.328	-0.05385898
9.329	-0.0610141
9.33	-0.06661924
9.331	-0.0705869
9.332	-0.07288917
9.333	-0.07358627
9.334	-0.07270198
9.335	-0.07049641
9.336	-0.06721432
9.337	-0.06311553
9.338	-0.05852661
9.339	-0.05364096
9.34	-0.0488533
9.341	-0.04445632
9.342	-0.0406894
9.343	-0.0377837
9.344	-0.03582331
9.345	-0.03497579
9.346	-0.03529997
9.347	-0.03677556
9.348	-0.03930987
9.349	-0.04279321
9.35	-0.04707854
9.351	-0.05198231
9.352	-0.05726537
9.353	-0.06259691
9.354	-0.06781805
9.355	-0.07267001
9.356	-0.07693241
9.357	-0.08036345
9.358	-0.08264765
9.359	-0.0837614
9.36	-0.08358243
9.361	-0.08204714
9.362	-0.07908573
9.363	-0.07458516
9.364	-0.06872665
9.365	-0.06161107
9.366	-0.05337291
9.367	-0.0441387
9.368	-0.03401092
9.369	-0.02331706
9.37	-0.01227669
9.371	-0.001115546
9.372	0.009955052
9.373	0.02075472
9.374	0.03094853
9.375	0.04040017
9.376	0.04896631
9.377	0.05651752
9.378	0.06297681
9.379	0.06814674
9.38	0.07212122
9.381	0.07495342
9.382	0.07669089
9.383	0.07743362
9.384	0.07716706
9.385	0.07617546
9.386	0.07465641
9.387	0.07276348
9.388	0.07065997
9.389	0.06841362
9.39	0.06628969
9.391	0.06444663
9.392	0.06296643
9.393	0.0618806
9.394	0.06119761
9.395	0.06097876
9.396	0.06121153
9.397	0.06181104
9.398	0.0626125
9.399	0.06354803
9.4	0.06449738
9.401	0.06533494
9.402	0.06590097
9.403	0.06597208
9.404	0.06552731
9.405	0.06445069
9.406	0.06267234
9.407	0.06012445
9.408	0.05670711
9.409	0.05255224
9.41	0.0476813
9.411	0.04216523
9.412	0.03608437
9.413	0.02949995
9.414	0.02265779
9.415	0.01566744
9.416	0.008663253
9.417	0.00177735
9.418	-0.004884525
9.419	-0.01110191
9.42	-0.01682638
9.421	-0.02199404
9.422	-0.02654382
9.423	-0.0304441
9.424	-0.03359218
9.425	-0.03607525
9.426	-0.03794481
9.427	-0.03923479
9.428	-0.03999249
9.429	-0.04020808
9.43	-0.04003999
9.431	-0.03958549
9.432	-0.03890103
9.433	-0.03803221
9.434	-0.03697713
9.435	-0.03584953
9.436	-0.03470259
9.437	-0.03354798
9.438	-0.03237813
9.439	-0.0311638
9.44	-0.02993519
9.441	-0.02869282
9.442	-0.02741996
9.443	-0.02609304
9.444	-0.02470481
9.445	-0.0232604
9.446	-0.02176871
9.447	-0.02024378
9.448	-0.01870108
9.449	-0.01720161
9.45	-0.01577231
9.451	-0.01445351
9.452	-0.01328786
9.453	-0.0123034
9.454	-0.01158066
9.455	-0.01112352
9.456	-0.01094034
9.457	-0.01102536
9.458	-0.01133775
9.459	-0.011881
9.46	-0.01257561
9.461	-0.01334868
9.462	-0.01411868
9.463	-0.01478421
9.464	-0.0152768
9.465	-0.01549239
9.466	-0.01535291
9.467	-0.01480367
9.468	-0.01381794
9.469	-0.01238171
9.47	-0.0105041
9.471	-0.008226694
9.472	-0.00563315
9.473	-0.002860473
9.474	-2.345314e-005
9.475	0.002736537
9.476	0.005274703
9.477	0.007431869
9.478	0.009032946
9.479	0.009947627
9.48	0.0100774
9.481	0.009355947
9.482	0.007750496
9.483	0.005278188
9.484	0.001967181
9.485	-0.002072184
9.486	-0.006703102
9.487	-0.01174244
9.488	-0.01693487
9.489	-0.0220985
9.49	-0.02699133
9.491	-0.03139085
9.492	-0.03506434
9.493	-0.0377515
9.494	-0.03932652
9.495	-0.039678
9.496	-0.0387435
9.497	-0.03648934
9.498	-0.03291394
9.499	-0.02812185
9.5	-0.02227703
9.501	-0.01556717
9.502	-0.008206227
9.503	-0.0004516645
9.504	0.007425526
9.505	0.01513613
9.506	0.02241891
9.507	0.02902347
9.508	0.03470148
9.509	0.03925383
9.51	0.04256232
9.511	0.04455148
9.512	0.04518101
9.513	0.04446267
9.514	0.0424292
9.515	0.03926355
9.516	0.03514764
9.517	0.03028025
9.518	0.02491345
9.519	0.01923746
9.52	0.0135683
9.521	0.008162592
9.522	0.003251368
9.523	-0.0009292407
9.524	-0.00425177
9.525	-0.006560513
9.526	-0.00777183
9.527	-0.007849746
9.528	-0.006801359
9.529	-0.004698266
9.53	-0.001668638
9.531	0.00213619
9.532	0.006539315
9.533	0.01131855
9.534	0.01629244
9.535	0.02121326
9.536	0.02587244
9.537	0.03007486
9.538	0.03361271
9.539	0.03640112
9.54	0.03833228
9.541	0.03935212
9.542	0.03942931
9.543	0.03853868
9.544	0.03678099
9.545	0.03426239
9.546	0.03110162
9.547	0.02741028
9.548	0.02328934
9.549	0.01891122
9.55	0.01443627
9.551	0.00999468
9.552	0.00568238
9.553	0.001564119
9.554	-0.002270703
9.555	-0.005779442
9.556	-0.008942735
9.557	-0.0117606
9.558	-0.01425172
9.559	-0.01641897
9.56	-0.01832929
9.561	-0.02002908
9.562	-0.02154234
9.563	-0.02287735
9.564	-0.02402561
9.565	-0.02504334
9.566	-0.02594044
9.567	-0.02668389
9.568	-0.02721083
9.569	-0.02746085
9.57	-0.02743671
9.571	-0.02711124
9.572	-0.0264334
9.573	-0.02534311
9.574	-0.02380532
9.575	-0.02184077
9.576	-0.01946974
9.577	-0.01671918
9.578	-0.01363495
9.579	-0.01028028
9.58	-0.006745079
9.581	-0.003125603
9.582	0.0004669734
9.583	0.003900776
9.584	0.007057761
9.585	0.00984302
9.586	0.01216682
9.587	0.01393819
9.588	0.01507012
9.589	0.01550016
9.59	0.01523532
9.591	0.01429051
9.592	0.01269262
9.593	0.01049854
9.594	0.007755593
9.595	0.00459426
9.596	0.001136104
9.597	-0.002487747
9.598	-0.006112887
9.599	-0.009638295
9.6	-0.01290998
9.601	-0.01580229
9.602	-0.01819338
9.603	-0.01994933
9.604	-0.0210223
9.605	-0.02136559
9.606	-0.02096035
9.607	-0.01980041
9.608	-0.01789422
9.609	-0.01529798
9.61	-0.01210862
9.611	-0.008428378
9.612	-0.004370201
9.613	-7.601433e-005
9.614	0.004346862
9.615	0.008748344
9.616	0.01299669
9.617	0.0169536
9.618	0.02045052
9.619	0.02342652
9.62	0.02580229
9.621	0.0275194
9.622	0.02850898
9.623	0.02867604
9.624	0.02804634
9.625	0.02665245
9.626	0.02453044
9.627	0.02170095
9.628	0.01817204
9.629	0.01401788
9.63	0.009335137
9.631	0.004211659
9.632	-0.001266614
9.633	-0.006994067
9.634	-0.01288518
9.635	-0.0188288
9.636	-0.02471639
9.637	-0.03041236
9.638	-0.03572744
9.639	-0.04056692
9.64	-0.04483226
9.641	-0.04841722
9.642	-0.05117443
9.643	-0.05290396
9.644	-0.05353588
9.645	-0.05304416
9.646	-0.05139838
9.647	-0.04854735
9.648	-0.0444321
9.649	-0.03910634
9.65	-0.03269897
9.651	-0.02534135
9.652	-0.01717466
9.653	-0.008375235
9.654	0.0008349828
9.655	0.01020138
9.656	0.01947544
9.657	0.02839462
9.658	0.03666899
9.659	0.0440393
9.66	0.05032579
9.661	0.05536601
9.662	0.05900189
9.663	0.06109477
9.664	0.06156021
9.665	0.06049089
9.666	0.05797911
9.667	0.05412599
9.668	0.04907948
9.669	0.04299347
9.67	0.0361939
9.671	0.02896016
9.672	0.02155368
9.673	0.01425518
9.674	0.007289572
9.675	0.0009424479
9.676	-0.004574082
9.677	-0.009094235
9.678	-0.01248707
9.679	-0.01467283
9.68	-0.01564501
9.681	-0.01543896
9.682	-0.01412957
9.683	-0.01185302
9.684	-0.008714967
9.685	-0.004958872
9.686	-0.0008012189
9.687	0.003541143
9.688	0.007811976
9.689	0.01187467
9.69	0.01548396
9.691	0.01846613
9.692	0.0206801
9.693	0.02198668
9.694	0.02238956
9.695	0.02185389
9.696	0.02040064
9.697	0.01807933
9.698	0.01495788
9.699	0.01119825
9.7	0.006958979
9.701	0.002400267
9.702	-0.002323835
9.703	-0.007063413
9.704	-0.01163787
9.705	-0.01589645
9.706	-0.01972171
9.707	-0.02302818
9.708	-0.02576454
9.709	-0.02786835
9.71	-0.02935511
9.711	-0.03025673
9.712	-0.03062567
9.713	-0.03054838
9.714	-0.03007659
9.715	-0.02935533
9.716	-0.02850002
9.717	-0.02760945
9.718	-0.02678307
9.719	-0.02607355
9.72	-0.02559446
9.721	-0.02540427
9.722	-0.0255175
9.723	-0.02591228
9.724	-0.02656875
9.725	-0.02747518
9.726	-0.02858529
9.727	-0.0298122
9.728	-0.03101737
9.729	-0.03216023
9.73	-0.03316074
9.731	-0.0339433
9.732	-0.03440793
9.733	-0.03440356
9.734	-0.0339532
9.735	-0.03300637
9.736	-0.03153801
9.737	-0.0295088
9.738	-0.02683657
9.739	-0.02362162
9.74	-0.01987436
9.741	-0.01563
9.742	-0.01091761
9.743	-0.005743166
9.744	-0.0002432415
9.745	0.005535241
9.746	0.0115226
9.747	0.01763743
9.748	0.02379131
9.749	0.02983822
9.75	0.03572126
9.751	0.04135582
9.752	0.04662619
9.753	0.0513901
9.754	0.0555107
9.755	0.05895739
9.756	0.061671
9.757	0.06356038
9.758	0.06451834
9.759	0.06447756
9.76	0.0634973
9.761	0.06161373
9.762	0.0588463
9.763	0.0552244
9.764	0.05080965
9.765	0.04577272
9.766	0.04026149
9.767	0.03441786
9.768	0.02840247
9.769	0.02236981
9.77	0.01651004
9.771	0.01098657
9.772	0.005954358
9.773	0.001568724
9.774	-0.002046331
9.775	-0.004826313
9.776	-0.006724246
9.777	-0.007704293
9.778	-0.007756124
9.779	-0.006873105
9.78	-0.005170086
9.781	-0.002750102
9.782	0.0002799903
9.783	0.003775921
9.784	0.007661115
9.785	0.01173497
9.786	0.01583671
9.787	0.01980989
9.788	0.02346358
9.789	0.026742
9.79	0.02950631
9.791	0.03166044
9.792	0.03310987
9.793	0.03373268
9.794	0.03356913
9.795	0.03262012
9.796	0.03090728
9.797	0.02844041
9.798	0.02520353
9.799	0.0213292
9.8	0.01692011
9.801	0.01207571
9.802	0.006872778
9.803	0.001358784
9.804	-0.00430154
9.805	-0.01000694
9.806	-0.01566365
9.807	-0.02119727
9.808	-0.02656292
9.809	-0.03162674
9.81	-0.03636938
9.811	-0.04075953
9.812	-0.04476543
9.813	-0.04837415
9.814	-0.05150195
9.815	-0.05421221
9.816	-0.0565289
9.817	-0.05845168
9.818	-0.05998219
9.819	-0.06106784
9.82	-0.06180088
9.821	-0.06222072
9.822	-0.06233163
9.823	-0.0621293
9.824	-0.06158364
9.825	-0.06077643
9.826	-0.05974615
9.827	-0.05850229
9.828	-0.05704309
9.829	-0.05538414
9.83	-0.05359501
9.831	-0.05172189
9.832	-0.04979036
9.833	-0.04780549
9.834	-0.04583775
9.835	-0.04393471
9.836	-0.04213529
9.837	-0.04045537
9.838	-0.03886797
9.839	-0.03745824
9.84	-0.03621381
9.841	-0.03512469
9.842	-0.03415262
9.843	-0.0331968
9.844	-0.0323172
9.845	-0.03143231
9.846	-0.03048078
9.847	-0.02937984
9.848	-0.02798561
9.849	-0.02636052
9.85	-0.02441619
9.851	-0.0221044
9.852	-0.01937112
9.853	-0.016117
9.854	-0.01247257
9.855	-0.008415133
9.856	-0.003968364
9.857	0.0008429623
9.858	0.006031928
9.859	0.01138925
9.86	0.01688072
9.861	0.02243448
9.862	0.02798391
9.863	0.03350911
9.864	0.03879138
9.865	0.04382401
9.866	0.04856841
9.867	0.05299634
9.868	0.05713524
9.869	0.06083571
9.87	0.06418163
9.871	0.06721283
9.872	0.06996654
9.873	0.07252204
9.874	0.07480785
9.875	0.07696477
9.876	0.07906886
9.877	0.08116562
9.878	0.0833037
9.879	0.0854335
9.88	0.08765606
9.881	0.09000086
9.882	0.09244278
9.883	0.09491664
9.884	0.0973489
9.885	0.099742
9.886	0.1020453
9.887	0.1041497
9.888	0.1058826
9.889	0.1071877
9.89	0.1080188
9.891	0.1083112
9.892	0.1079534
9.893	0.1067618
9.894	0.1048228
9.895	0.1021538
9.896	0.09877966
9.897	0.0946732
9.898	0.08969897
9.899	0.08416511
9.9	0.07816736
9.901	0.07181293
9.902	0.06511651
9.903	0.0578985
9.904	0.05058535
9.905	0.04319264
9.906	0.03575445
9.907	0.02817501
9.908	0.02009349
9.909	0.01184263
9.91	0.003204923
9.911	-0.005965336
9.912	-0.01589714
9.913	-0.02702198
9.914	-0.03915621
9.915	-0.05262322
9.916	-0.06757919
9.917	-0.08410718
9.918	-0.1022628
9.919	-0.1218041
9.92	-0.1427894
9.921	-0.1650509
9.922	-0.1881732
9.923	-0.2114509
9.924	-0.2343996
9.925	-0.2566381
9.926	-0.2776153
9.927	-0.2964799
9.928	-0.3119996
9.929	-0.3236729
9.93	-0.3310561
9.931	-0.3336798
9.932	-0.3308863
9.933	-0.3217867
9.934	-0.3064297
9.935	-0.2849642
9.936	-0.2576206
9.937	-0.2246147
9.938	-0.1861762
9.939	-0.1432336
9.94	-0.09672654
9.941	-0.04766542
9.942	0.002855525
9.943	0.05360176
9.944	0.1031572
9.945	0.1504352
9.946	0.1943457
9.947	0.2337199
9.948	0.2673158
9.949	0.2941335
9.95	0.313936
9.951	0.3264668
9.952	0.3314107
9.953	0.3285148
9.954	0.3178327
9.955	0.300367
9.956	0.2769578
9.957	0.2483437
9.958	0.2153543
9.959	0.1788923
9.96	0.1405303
9.961	0.1015357
9.962	0.06300189
9.963	0.02600171
9.964	-0.008552285
9.965	-0.03968877
9.966	-0.06670721
9.967	-0.08907068
9.968	-0.1063812
9.969	-0.1183944
9.97	-0.1253597
9.971	-0.1275564
9.972	-0.1252867
9.973	-0.1189799
9.974	-0.1090075
9.975	-0.09640794
9.976	-0.08197905
9.977	-0.06636625
9.978	-0.05021447
9.979	-0.0339355
9.98	-0.01839397
9.981	-0.004132754
9.982	0.008515265
9.983	0.01932218
9.984	0.02825525
9.985	0.03517997
9.986	0.04012808
9.987	0.04323615
9.988	0.04472903
9.989	0.04483553
9.99	0.04392417
9.991	0.04230258
9.992	0.04022731
9.993	0.0379507
9.994	0.03559396
9.995	0.03347762
9.996	0.03176056
9.997	0.03048427
9.998	0.02962793
9.999	0.029078
10	0.02886414
10.001	0.02891657
10.002	0.0290954
10.003	0.0292152
10.004	0.02913053
10.005	0.02874994
10.006	0.02798881
10.007	0.02676567
10.008	0.02499504
10.009	0.02270902
10.01	0.01991407
10.011	0.01666194
10.012	0.01302981
10.013	0.009101335
10.014	0.005054078
10.015	0.0009838471
10.016	-0.002994676
10.017	-0.006763379
10.018	-0.0102174
10.019	-0.01321186
10.02	-0.01571075
10.021	-0.01768113
10.022	-0.0191022
10.023	-0.01998111
10.024	-0.02029811
10.025	-0.02014115
10.026	-0.01958609
10.027	-0.01870895
10.028	-0.01760501
10.029	-0.01632277
10.03	-0.01499403
10.031	-0.01371319
10.032	-0.01255432
10.033	-0.01158903
10.034	-0.01083729
10.035	-0.01036397
10.036	-0.01019571
10.037	-0.01033369
10.038	-0.01076174
10.039	-0.01143903
10.04	-0.01233436
10.041	-0.01340219
10.042	-0.01458449
10.043	-0.01580954
10.044	-0.01701036
10.045	-0.0181189
10.046	-0.01907796
10.047	-0.01983809
10.048	-0.02035742
10.049	-0.02059489
10.05	-0.02052756
10.051	-0.02014978
10.052	-0.01947787
10.053	-0.0185605
10.054	-0.01740672
10.055	-0.01607129
10.056	-0.01461291
10.057	-0.01311239
10.058	-0.01169109
10.059	-0.0103924
10.06	-0.009309057
10.061	-0.008518411
10.062	-0.008104046
10.063	-0.00816711
10.064	-0.008743431
10.065	-0.009882202
10.066	-0.0116064
10.067	-0.01391726
10.068	-0.01678314
10.069	-0.02018585
10.07	-0.0240646
10.071	-0.02833755
10.072	-0.03287611
10.073	-0.03747215
10.074	-0.04203983
10.075	-0.04642082
10.076	-0.05045606
10.077	-0.05393909
10.078	-0.05658246
10.079	-0.05829743
10.08	-0.05894941
10.081	-0.05842872
10.082	-0.05661001
10.083	-0.05334057
10.084	-0.04866461
10.085	-0.04263095
10.086	-0.03532341
10.087	-0.02684726
10.088	-0.01734043
10.089	-0.007059558
10.09	0.00373949
10.091	0.0147846
10.092	0.02577775
10.093	0.03638593
10.094	0.04625597
10.095	0.05513564
10.096	0.06278562
10.097	0.06897165
10.098	0.07348475
10.099	0.07613578
10.1	0.07696182
10.101	0.07600758
10.102	0.07334288
10.103	0.06911438
10.104	0.06343508
10.105	0.05667331
10.106	0.04915194
10.107	0.0411924
10.108	0.0331721
10.109	0.02534719
10.11	0.01811866
10.111	0.01179119
10.112	0.006620327
10.113	0.002842052
10.114	0.0005582121
10.115	-0.0001500307
10.116	0.0007188321
10.117	0.003105689
10.118	0.006878478
10.119	0.01187788
10.12	0.01782857
10.121	0.02445702
10.122	0.03146901
10.123	0.03850947
10.124	0.0453483
10.125	0.05165799
10.126	0.05718236
10.127	0.06168832
10.128	0.06492689
10.129	0.06685564
10.13	0.06740435
10.131	0.06656729
10.132	0.06435946
10.133	0.06079852
10.134	0.05608446
10.135	0.05041808
10.136	0.04400195
10.137	0.03701804
10.138	0.02962475
10.139	0.02210009
10.14	0.01467267
10.141	0.00752889
10.142	0.000802781
10.143	-0.005433193
10.144	-0.01100836
10.145	-0.01589098
10.146	-0.02006946
10.147	-0.02356988
10.148	-0.02648506
10.149	-0.02877991
10.15	-0.03061763
10.151	-0.03211806
10.152	-0.03339029
10.153	-0.03457481
10.154	-0.03565964
10.155	-0.03682509
10.156	-0.03816402
10.157	-0.03971844
10.158	-0.04151769
10.159	-0.04347318
10.16	-0.04563948
10.161	-0.04799458
10.162	-0.05046421
10.163	-0.05294332
10.164	-0.05530205
10.165	-0.05750031
10.166	-0.05946696
10.167	-0.06110258
10.168	-0.06228298
10.169	-0.06295742
10.17	-0.06311731
10.171	-0.06275523
10.172	-0.06184959
10.173	-0.06035498
10.174	-0.05835151
10.175	-0.05590739
10.176	-0.05309114
10.177	-0.04994835
10.178	-0.04648605
10.179	-0.04283969
10.18	-0.03907652
10.181	-0.03525657
10.182	-0.03141074
10.183	-0.02752386
10.184	-0.02369699
10.185	-0.01992509
10.186	-0.01621071
10.187	-0.01254582
10.188	-0.008894247
10.189	-0.005328889
10.19	-0.001803214
10.191	0.001692386
10.192	0.005147604
10.193	0.008553395
10.194	0.01180483
10.195	0.01492366
10.196	0.01788317
10.197	0.02062686
10.198	0.02309507
10.199	0.02516173
10.2	0.02683852
10.201	0.02810263
10.202	0.02891693
10.203	0.0292589
10.204	0.02906619
10.205	0.02840922
10.206	0.02733742
10.207	0.02589915
10.208	0.02416683
10.209	0.02217704
10.21	0.02005845
10.211	0.01791566
10.212	0.01584648
10.213	0.01395696
10.214	0.01231251
10.215	0.01100587
10.216	0.01009976
10.217	0.009636642
10.218	0.009640516
10.219	0.01011019
10.22	0.01102021
10.221	0.01232798
10.222	0.01397214
10.223	0.01586389
10.224	0.01792812
10.225	0.02005504
10.226	0.02214448
10.227	0.02409544
10.228	0.02579568
10.229	0.02717986
10.23	0.02817219
10.231	0.02872202
10.232	0.02879326
10.233	0.02836038
10.234	0.02744917
10.235	0.02609833
10.236	0.02436134
10.237	0.02230153
10.238	0.01999264
10.239	0.01754381
10.24	0.01506457
10.241	0.01265435
10.242	0.01039947
10.243	0.008369161
10.244	0.006658597
10.245	0.00531904
10.246	0.004380739
10.247	0.003844509
10.248	0.003668695
10.249	0.003851569
10.25	0.00431577
10.251	0.004982314
10.252	0.005755888
10.253	0.006508882
10.254	0.007178019
10.255	0.007638691
10.256	0.007797542
10.257	0.007578324
10.258	0.006912486
10.259	0.005797229
10.26	0.004207739
10.261	0.002160693
10.262	-0.0002920763
10.263	-0.003064829
10.264	-0.006045189
10.265	-0.00912952
10.266	-0.01219936
10.267	-0.01511941
10.268	-0.01773739
10.269	-0.01992655
10.27	-0.02159457
10.271	-0.02266634
10.272	-0.02307993
10.273	-0.02279192
10.274	-0.02179964
10.275	-0.02015803
10.276	-0.01793756
10.277	-0.01522603
10.278	-0.01213859
10.279	-0.008798505
10.28	-0.005366233
10.281	-0.001986524
10.282	0.001203463
10.283	0.004066902
10.284	0.006493298
10.285	0.0083888
10.286	0.009692679
10.287	0.01037132
10.288	0.01042142
10.289	0.009855258
10.29	0.008742068
10.291	0.007162122
10.292	0.005211814
10.293	0.003016763
10.294	0.0006752554
10.295	-0.001662409
10.296	-0.003872056
10.297	-0.005841946
10.298	-0.007460499
10.299	-0.008663261
10.3	-0.009374866
10.301	-0.009558161
10.302	-0.00920548
10.303	-0.008338822
10.304	-0.00699418
10.305	-0.005237132
10.306	-0.003148212
10.307	-0.0008294529
10.308	0.001582539
10.309	0.003998189
10.31	0.006289846
10.311	0.008347636
10.312	0.01006123
10.313	0.01130481
10.314	0.01204014
10.315	0.01221182
10.316	0.01179388
10.317	0.01077223
10.318	0.009137206
10.319	0.006960998
10.32	0.004313764
10.321	0.001278189
10.322	-0.002059321
10.323	-0.005609235
10.324	-0.009239324
10.325	-0.01283614
10.326	-0.01629677
10.327	-0.01952984
10.328	-0.02245635
10.329	-0.02499347
10.33	-0.02710978
10.331	-0.02878551
10.332	-0.03001106
10.333	-0.03079096
10.334	-0.03114544
10.335	-0.03115382
10.336	-0.0308824
10.337	-0.0303821
10.338	-0.02969159
10.339	-0.02887859
10.34	-0.02803672
10.341	-0.0272243
10.342	-0.02645789
10.343	-0.02570829
10.344	-0.02500834
10.345	-0.02436722
10.346	-0.02376755
10.347	-0.02315021
10.348	-0.02240147
10.349	-0.02151842
10.35	-0.02044051
10.351	-0.01911454
10.352	-0.01747183
10.353	-0.01541089
10.354	-0.0129669
10.355	-0.01010468
10.356	-0.006823131
10.357	-0.003133303
10.358	0.0009566742
10.359	0.005328191
10.36	0.009940108
10.361	0.01471728
10.362	0.01956282
10.363	0.02436865
10.364	0.02897617
10.365	0.03331807
10.366	0.03730679
10.367	0.04083812
10.368	0.04380254
10.369	0.04609154
10.37	0.04770411
10.371	0.04862618
10.372	0.04883415
10.373	0.0483113
10.374	0.04706632
10.375	0.04520895
10.376	0.04282859
10.377	0.04000085
10.378	0.03680252
10.379	0.03334616
10.38	0.02979045
10.381	0.02626245
10.382	0.02285907
10.383	0.019647
10.384	0.01674842
10.385	0.01423967
10.386	0.01216938
10.387	0.01054495
10.388	0.009312077
10.389	0.008507437
10.39	0.008049042
10.391	0.007856969
10.392	0.007826135
10.393	0.007796538
10.394	0.007731844
10.395	0.007472417
10.396	0.00690247
10.397	0.005922012
10.398	0.004424762
10.399	0.002424109
10.4	-0.0001427855
10.401	-0.0032767
10.402	-0.006932193
10.403	-0.01102578
10.404	-0.01541487
10.405	-0.02000015
10.406	-0.02464615
10.407	-0.02918146
10.408	-0.03340002
10.409	-0.03712562
10.41	-0.04023793
10.411	-0.04262197
10.412	-0.04415957
10.413	-0.04473299
10.414	-0.04430839
10.415	-0.04292578
10.416	-0.04063983
10.417	-0.03751308
10.418	-0.03362373
10.419	-0.02912003
10.42	-0.02419422
10.421	-0.01902481
10.422	-0.01377654
10.423	-0.008605922
10.424	-0.003692814
10.425	0.0008126056
10.426	0.004795097
10.427	0.008171805
10.428	0.01089589
10.429	0.01291694
10.43	0.0142744
10.431	0.01501859
10.432	0.01521331
10.433	0.01494931
10.434	0.0142917
10.435	0.01340057
10.436	0.01239892
10.437	0.01138316
10.438	0.01044071
10.439	0.009607751
10.44	0.008982548
10.441	0.008607315
10.442	0.008482588
10.443	0.008583425
10.444	0.008837947
10.445	0.009212582
10.446	0.009647062
10.447	0.01006832
10.448	0.01040424
10.449	0.01056048
10.45	0.01048325
10.451	0.01013285
10.452	0.009495478
10.453	0.008593641
10.454	0.007443163
10.455	0.006096368
10.456	0.004624845
10.457	0.003126239
10.458	0.001725221
10.459	0.000540452
10.46	-0.0003162338
10.461	-0.0007443476
10.462	-0.0006593387
10.463	-6.537775e-006
10.464	0.001273052
10.465	0.003174317
10.466	0.005660614
10.467	0.008646119
10.468	0.01197417
10.469	0.01553165
10.47	0.01913863
10.471	0.0226105
10.472	0.02573685
10.473	0.02826947
10.474	0.03004884
10.475	0.03091699
10.476	0.03075615
10.477	0.02947801
10.478	0.02703039
10.479	0.02344951
10.48	0.01883185
10.481	0.01331503
10.482	0.007081763
10.483	0.0003730376
10.484	-0.006538995
10.485	-0.01336318
10.486	-0.0198212
10.487	-0.0256402
10.488	-0.03055579
10.489	-0.03432273
10.49	-0.03679641
10.491	-0.03788507
10.492	-0.03755666
10.493	-0.03586732
10.494	-0.03286054
10.495	-0.0287548
10.496	-0.02378373
10.497	-0.01822459
10.498	-0.01243734
10.499	-0.006674485
10.5	-0.001311016
10.501	0.003344274
10.502	0.00701194
10.503	0.009417935
10.504	0.01043979
10.505	0.009955409
10.506	0.007935884
10.507	0.004425959
10.508	-0.0004507568
10.509	-0.006504753
10.51	-0.01347803
10.511	-0.02108473
10.512	-0.02899792
10.513	-0.03682471
10.514	-0.04426343
10.515	-0.05098077
10.516	-0.05669893
10.517	-0.06116022
10.518	-0.06410521
10.519	-0.0654595
10.52	-0.06518785
10.521	-0.06331769
10.522	-0.05990754
10.523	-0.05504202
10.524	-0.04896124
10.525	-0.04194804
10.526	-0.03427946
10.527	-0.02621439
10.528	-0.01799746
10.529	-0.00994454
10.53	-0.00232976
10.531	0.004633002
10.532	0.01079152
10.533	0.01606044
10.534	0.02032002
10.535	0.02358853
10.536	0.02591526
10.537	0.02738799
10.538	0.02815455
10.539	0.02829509
10.54	0.02805395
10.541	0.02762352
10.542	0.02716374
10.543	0.0268318
10.544	0.02667767
10.545	0.02687421
10.546	0.0274969
10.547	0.02854841
10.548	0.02998646
10.549	0.03167554
10.55	0.0335665
10.551	0.03555067
10.552	0.03748236
10.553	0.03920428
10.554	0.0405181
10.555	0.04132072
10.556	0.04152025
10.557	0.04105636
10.558	0.03992422
10.559	0.0381045
10.56	0.03567946
10.561	0.03276082
10.562	0.02950785
10.563	0.026143
10.564	0.02284967
10.565	0.01985445
10.566	0.0173655
10.567	0.01558272
10.568	0.014695
10.569	0.01483083
10.57	0.01606644
10.571	0.01841993
10.572	0.02184629
10.573	0.02621789
10.574	0.03139641
10.575	0.03715768
10.576	0.04325279
10.577	0.04938824
10.578	0.05520476
10.579	0.06044492
10.58	0.06482787
10.581	0.06811704
10.582	0.07009365
10.583	0.07054377
10.584	0.06945891
10.585	0.06686385
10.586	0.06283997
10.587	0.05749414
10.588	0.05093957
10.589	0.04355997
10.59	0.03568737
10.591	0.0276439
10.592	0.01968896
10.593	0.0119625
10.594	0.004954174
10.595	-0.001123006
10.596	-0.006118541
10.597	-0.01004212
10.598	-0.01316941
10.599	-0.01530102
10.6	-0.01670488
10.601	-0.0176526
10.602	-0.018553
10.603	-0.02006762
10.604	-0.02231802
10.605	-0.02586189
10.606	-0.03111448
10.607	-0.03845459
10.608	-0.04827586
10.609	-0.060617
10.61	-0.07570036
10.611	-0.09351149
10.612	-0.1137951
10.613	-0.1359985
10.614	-0.1597102
10.615	-0.1844427
10.616	-0.2095389
10.617	-0.2340314
10.618	-0.2565169
10.619	-0.276329
10.62	-0.292677
10.621	-0.3047836
10.622	-0.3116795
10.623	-0.3121072
10.624	-0.3058657
10.625	-0.292767
10.626	-0.2727699
10.627	-0.2458331
10.628	-0.211916
10.629	-0.1718426
10.63	-0.1264975
10.631	-0.07688087
10.632	-0.02409452
10.633	0.03059132
10.634	0.08561667
10.635	0.139632
10.636	0.1912979
10.637	0.2392013
10.638	0.2818271
10.639	0.3179138
10.64	0.3468882
10.641	0.3682169
10.642	0.3813346
10.643	0.3857329
10.644	0.3813184
10.645	0.3689701
10.646	0.3494492
10.647	0.3234262
10.648	0.2916605
10.649	0.2551205
10.65	0.215522
10.651	0.1742599
10.652	0.1325174
10.653	0.09142414
10.654	0.05207536
10.655	0.01566945
10.656	-0.01692569
10.657	-0.04507737
10.658	-0.06836126
10.659	-0.08637425
10.66	-0.09925511
10.661	-0.1072154
10.662	-0.1105476
10.663	-0.1097431
10.664	-0.1050814
10.665	-0.09764535
10.666	-0.08825979
10.667	-0.07760326
10.668	-0.06638794
10.669	-0.05494143
10.67	-0.04422225
10.671	-0.03479789
10.672	-0.02698067
10.673	-0.02096195
10.674	-0.01663861
10.675	-0.01418109
10.676	-0.01351545
10.677	-0.01439978
10.678	-0.01646577
10.679	-0.01931991
10.68	-0.0225809
10.681	-0.02587915
10.682	-0.02885561
10.683	-0.03113904
10.684	-0.03253085
10.685	-0.03276422
10.686	-0.03171807
10.687	-0.02938141
10.688	-0.0258206
10.689	-0.0212538
10.69	-0.01583386
10.691	-0.009803183
10.692	-0.003472135
10.693	0.002796254
10.694	0.008641608
10.695	0.01378431
10.696	0.01797573
10.697	0.02099487
10.698	0.02265326
10.699	0.02285886
10.7	0.02162402
10.701	0.01902295
10.702	0.01518478
10.703	0.01030321
10.704	0.00461306
10.705	-0.001576155
10.706	-0.007965746
10.707	-0.0142584
10.708	-0.02014267
10.709	-0.02537927
10.71	-0.0297324
10.711	-0.03303962
10.712	-0.03518981
10.713	-0.03611245
10.714	-0.03584107
10.715	-0.0344649
10.716	-0.03211441
10.717	-0.02894628
10.718	-0.02514529
10.719	-0.02092921
10.72	-0.01655424
10.721	-0.01223777
10.722	-0.008161978
10.723	-0.004484877
10.724	-0.001323371
10.725	0.001215235
10.726	0.003087174
10.727	0.004297887
10.728	0.004891977
10.729	0.004952294
10.73	0.004590528
10.731	0.003927339
10.732	0.003082876
10.733	0.002175252
10.734	0.001313237
10.735	0.0006210389
10.736	0.0001749714
10.737	4.749004e-006
10.738	9.971724e-005
10.739	0.0004274624
10.74	0.0009637195
10.741	0.001644646
10.742	0.00237236
10.743	0.00302326
10.744	0.003487257
10.745	0.00367585
10.746	0.003510134
10.747	0.002923922
10.748	0.001869933
10.749	0.0003397409
10.75	-0.001648207
10.751	-0.004044307
10.752	-0.006766719
10.753	-0.009699631
10.754	-0.01270965
10.755	-0.01566782
10.756	-0.0184403
10.757	-0.02088795
10.758	-0.02287125
10.759	-0.02427118
10.76	-0.02502224
10.761	-0.02508222
10.762	-0.02443436
10.763	-0.02309759
10.764	-0.02112137
10.765	-0.01861997
10.766	-0.01571746
10.767	-0.01255181
10.768	-0.009280778
10.769	-0.0060808
10.77	-0.003134666
10.771	-0.000595444
10.772	0.001416663
10.773	0.002825562
10.774	0.003521149
10.775	0.003477198
10.776	0.002708157
10.777	0.001289889
10.778	-0.0006108748
10.779	-0.002929028
10.78	-0.005472645
10.781	-0.008052582
10.782	-0.01044582
10.783	-0.01236229
10.784	-0.01368897
10.785	-0.014221
10.786	-0.01381223
10.787	-0.01233843
10.788	-0.009677573
10.789	-0.005887656
10.79	-0.0009915186
10.791	0.004922213
10.792	0.01171818
10.793	0.01921653
10.794	0.02715522
10.795	0.03530425
10.796	0.04341601
10.797	0.05122067
10.798	0.05842132
10.799	0.06477277
10.8	0.07011141
10.801	0.07429707
10.802	0.07719476
10.803	0.07867429
10.804	0.07872965
10.805	0.07746384
10.806	0.07498577
10.807	0.07139425
10.808	0.06678486
10.809	0.0613611
10.81	0.05538698
10.811	0.04908269
10.812	0.04261893
10.813	0.0361239
10.814	0.0297924
10.815	0.02378413
10.816	0.01820562
10.817	0.01310929
10.818	0.008489745
10.819	0.004409376
10.82	0.000817664
10.821	-0.002336026
10.822	-0.00511141
10.823	-0.007597359
10.824	-0.009779698
10.825	-0.01179058
10.826	-0.01370161
10.827	-0.01554654
10.828	-0.01735514
10.829	-0.01903763
10.83	-0.0206589
10.831	-0.02221342
10.832	-0.02365688
10.833	-0.02494575
10.834	-0.02593728
10.835	-0.02664458
10.836	-0.02704447
10.837	-0.02711015
10.838	-0.02684774
10.839	-0.026189
10.84	-0.02520381
10.841	-0.0239513
10.842	-0.02250824
10.843	-0.02099509
10.844	-0.01946231
10.845	-0.01804512
10.846	-0.01685927
10.847	-0.0160203
10.848	-0.01565326
10.849	-0.01581815
10.85	-0.01658689
10.851	-0.01799481
10.852	-0.02004529
10.853	-0.02270284
10.854	-0.02590825
10.855	-0.02956981
10.856	-0.03357092
10.857	-0.03775885
10.858	-0.04193017
10.859	-0.04593377
10.86	-0.04960004
10.861	-0.05277056
10.862	-0.0552781
10.863	-0.05693635
10.864	-0.05767635
10.865	-0.05745118
10.866	-0.05624456
10.867	-0.05405212
10.868	-0.05087819
10.869	-0.04685665
10.87	-0.04214055
10.871	-0.03689106
10.872	-0.03126354
10.873	-0.02540233
10.874	-0.01955011
10.875	-0.01389591
10.876	-0.008602525
10.877	-0.003792785
10.878	0.0004673198
10.879	0.004034625
10.88	0.006905897
10.881	0.009096959
10.882	0.01066225
10.883	0.01172276
10.884	0.0123009
10.885	0.01258395
10.886	0.01272344
10.887	0.01286123
10.888	0.01315959
10.889	0.01365373
10.89	0.01450386
10.891	0.01579054
10.892	0.01754073
10.893	0.0197516
10.894	0.02232096
10.895	0.02522725
10.896	0.0283869
10.897	0.03167046
10.898	0.03491655
10.899	0.03795219
10.9	0.04067254
10.901	0.04296521
10.902	0.04471126
10.903	0.04579004
10.904	0.0461479
10.905	0.04579087
10.906	0.04474255
10.907	0.0430347
10.908	0.04070587
10.909	0.03787304
10.91	0.03467217
10.911	0.03123374
10.912	0.02767302
10.913	0.02408631
10.914	0.02061446
10.915	0.01735968
10.916	0.01439679
10.917	0.01176856
10.918	0.009480563
10.919	0.007566799
10.92	0.005989867
10.921	0.004705634
10.922	0.003659378
10.923	0.002777134
10.924	0.002032929
10.925	0.001330172
10.926	0.0006057674
10.927	-0.0001792986
10.928	-0.001054532
10.929	-0.001983785
10.93	-0.002996393
10.931	-0.004078002
10.932	-0.005186225
10.933	-0.00627014
10.934	-0.007227562
10.935	-0.008030439
10.936	-0.008633135
10.937	-0.008989222
10.938	-0.009070217
10.939	-0.008827046
10.94	-0.008284695
10.941	-0.007471736
10.942	-0.006431753
10.943	-0.005233471
10.944	-0.003941595
10.945	-0.002657297
10.946	-0.001474985
10.947	-0.0004841097
10.948	0.0002337285
10.949	0.0006006625
10.95	0.0005613061
10.951	8.58888e-005
10.952	-0.000822926
10.953	-0.002119775
10.954	-0.003758878
10.955	-0.005650125
10.956	-0.007689211
10.957	-0.009750526
10.958	-0.01168357
10.959	-0.0133486
10.96	-0.01460754
10.961	-0.01534485
10.962	-0.01547043
10.963	-0.01493122
10.964	-0.01368351
10.965	-0.01174697
10.966	-0.009177025
10.967	-0.006078624
10.968	-0.002622963
10.969	0.001034431
10.97	0.004685704
10.971	0.008125493
10.972	0.01113971
10.973	0.01350486
10.974	0.01503143
10.975	0.01557138
10.976	0.01502634
10.977	0.01335478
10.978	0.01059551
10.979	0.006786417
10.98	0.002080601
10.981	-0.003331418
10.982	-0.009195343
10.983	-0.01516389
10.984	-0.02097066
10.985	-0.02628013
10.986	-0.03079087
10.987	-0.03420901
10.988	-0.03624103
10.989	-0.0367144
10.99	-0.03551433
10.991	-0.03260491
10.992	-0.02802551
10.993	-0.02191385
10.994	-0.014453
10.995	-0.005945292
10.996	0.003276703
10.997	0.01282437
10.998	0.02222058
10.999	0.03108879
11	0.03901411
11.001	0.04564231
11.002	0.05064397
11.003	0.05370257
11.004	0.05467417
11.005	0.05351064
11.006	0.05024428
11.007	0.04497223
11.008	0.03787597
11.009	0.02922606
11.01	0.01942395
11.011	0.008869778
11.012	-0.002019775
11.013	-0.01277941
11.014	-0.02300839
11.015	-0.03228063
11.016	-0.04025685
11.017	-0.04665178
11.018	-0.05121993
11.019	-0.05384453
11.02	-0.05452023
11.021	-0.05331128
11.022	-0.0503361
11.023	-0.04578418
11.024	-0.03989735
11.025	-0.03306354
11.026	-0.02563746
11.027	-0.0179557
11.028	-0.01036825
11.029	-0.003166563
11.03	0.00330008
11.031	0.008786555
11.032	0.01312499
11.033	0.0162072
11.034	0.01800087
11.035	0.01852965
11.036	0.0178826
11.037	0.01620339
11.038	0.01369867
11.039	0.01056698
11.04	0.007099438
11.041	0.003550403
11.042	0.0001506317
11.043	-0.002870985
11.044	-0.005372722
11.045	-0.007164349
11.046	-0.008145788
11.047	-0.008285968
11.048	-0.007607304
11.049	-0.006203109
11.05	-0.00416569
11.051	-0.001633891
11.052	0.00121655
11.053	0.004175185
11.054	0.007047137
11.055	0.009639712
11.056	0.01179153
11.057	0.01336673
11.058	0.01425039
11.059	0.01439835
11.06	0.01379025
11.061	0.01245766
11.062	0.01047417
11.063	0.007952528
11.064	0.005042065
11.065	0.001906578
11.066	-0.001286825
11.067	-0.004369032
11.068	-0.007166671
11.069	-0.009547431
11.07	-0.01139708
11.071	-0.0126418
11.072	-0.013238
11.073	-0.01316541
11.074	-0.01248128
11.075	-0.01126323
11.076	-0.009610424
11.077	-0.007628493
11.078	-0.005420301
11.079	-0.003144018
11.08	-0.0009367992
11.081	0.001090401
11.082	0.002865106
11.083	0.004361937
11.084	0.005526368
11.085	0.006360195
11.086	0.00689666
11.087	0.007207623
11.088	0.007407758
11.089	0.007579689
11.09	0.007847082
11.091	0.008318692
11.092	0.009089662
11.093	0.01023825
11.094	0.01181588
11.095	0.01387025
11.096	0.01639896
11.097	0.01934168
11.098	0.0225701
11.099	0.02598558
11.1	0.02946845
11.101	0.03287112
11.102	0.0360002
11.103	0.03860624
11.104	0.0405459
11.105	0.04168268
11.106	0.04190078
11.107	0.04108616
11.108	0.0391256
11.109	0.0360305
11.11	0.03184953
11.111	0.02666691
11.112	0.02059666
11.113	0.01379273
11.114	0.006469511
11.115	-0.001143145
11.116	-0.008811318
11.117	-0.01628676
11.118	-0.0232983
11.119	-0.0295983
11.12	-0.03500239
11.121	-0.03935308
11.122	-0.04250893
11.123	-0.04435406
11.124	-0.04481923
11.125	-0.0439739
11.126	-0.04190016
11.127	-0.03869927
11.128	-0.03452107
11.129	-0.02951247
11.13	-0.02395865
11.131	-0.01810798
11.132	-0.01219615
11.133	-0.006476698
11.134	-0.001141906
11.135	0.003565648
11.136	0.00747124
11.137	0.01044493
11.138	0.01239162
11.139	0.0132761
11.14	0.01311704
11.141	0.01197364
11.142	0.009941876
11.143	0.007168379
11.144	0.003796405
11.145	5.716144e-005
11.146	-0.003842398
11.147	-0.007704268
11.148	-0.0113185
11.149	-0.01453739
11.15	-0.01717492
11.151	-0.01910886
11.152	-0.02026336
11.153	-0.02060027
11.154	-0.0201356
11.155	-0.01891298
11.156	-0.01701481
11.157	-0.01455905
11.158	-0.01170654
11.159	-0.008609654
11.16	-0.005460969
11.161	-0.002432415
11.162	0.000314198
11.163	0.00261696
11.164	0.004364468
11.165	0.005447755
11.166	0.00580794
11.167	0.005428011
11.168	0.004334456
11.169	0.002575726
11.17	0.0002451031
11.171	-0.002541669
11.172	-0.005639153
11.173	-0.008858266
11.174	-0.01205625
11.175	-0.01505051
11.176	-0.0176848
11.177	-0.01981126
11.178	-0.02127817
11.179	-0.02201667
11.18	-0.02196105
11.181	-0.02108872
11.182	-0.01940826
11.183	-0.01695988
11.184	-0.01384087
11.185	-0.01017775
11.186	-0.006111445
11.187	-0.001798835
11.188	0.002579802
11.189	0.00684029
11.19	0.01080102
11.191	0.0143063
11.192	0.0172206
11.193	0.01942989
11.194	0.02084077
11.195	0.02142612
11.196	0.02119067
11.197	0.02017421
11.198	0.01846669
11.199	0.01615273
11.2	0.01340686
11.201	0.01039669
11.202	0.007296281
11.203	0.004303336
11.204	0.001563209
11.205	-0.000735978
11.206	-0.002455962
11.207	-0.003494611
11.208	-0.00377854
11.209	-0.003305037
11.21	-0.002088651
11.211	-0.0001891991
11.212	0.002295757
11.213	0.005231326
11.214	0.008441007
11.215	0.01173632
11.216	0.01493646
11.217	0.01787262
11.218	0.02039309
11.219	0.02234361
11.22	0.02362069
11.221	0.02416739
11.222	0.02398042
11.223	0.02312279
11.224	0.02165021
11.225	0.01970074
11.226	0.01743093
11.227	0.0150262
11.228	0.01271188
11.229	0.01065884
11.23	0.009074175
11.231	0.008120483
11.232	0.00792491
11.233	0.008581039
11.234	0.01010279
11.235	0.01248091
11.236	0.01564593
11.237	0.01947217
11.238	0.02377538
11.239	0.02833958
11.24	0.03293859
11.241	0.03734085
11.242	0.04130853
11.243	0.04459815
11.244	0.04703661
11.245	0.04849873
11.246	0.0489055
11.247	0.04821416
11.248	0.04641165
11.249	0.0436636
11.25	0.04015612
11.251	0.03609481
11.252	0.03166807
11.253	0.02700554
11.254	0.02252612
11.255	0.01849027
11.256	0.01510844
11.257	0.01245598
11.258	0.01038119
11.259	0.009153546
11.26	0.008673595
11.261	0.008793063
11.262	0.009187441
11.263	0.009245726
11.264	0.00887161
11.265	0.007569842
11.266	0.004915216
11.267	0.0004399739
11.268	-0.006422903
11.269	-0.01582773
11.27	-0.0281128
11.271	-0.04341359
11.272	-0.06167877
11.273	-0.08262238
11.274	-0.1059518
11.275	-0.1312914
11.276	-0.15807
11.277	-0.1854028
11.278	-0.2119685
11.279	-0.237023
11.28	-0.2596843
11.281	-0.279043
11.282	-0.293966
11.283	-0.3029946
11.284	-0.3056564
11.285	-0.3015202
11.286	-0.2902945
11.287	-0.2716715
11.288	-0.2453236
11.289	-0.2118292
11.29	-0.1719319
11.291	-0.1265088
11.292	-0.07654225
11.293	-0.02319634
11.294	0.03199528
11.295	0.08755786
11.296	0.1420326
11.297	0.1938934
11.298	0.241492
11.299	0.2834024
11.3	0.318764
11.301	0.3468071
11.302	0.3667614
11.303	0.3779167
11.304	0.3800084
11.305	0.3737094
11.306	0.3596341
11.307	0.3383406
11.308	0.310497
11.309	0.2770202
11.31	0.2396317
11.311	0.1997483
11.312	0.158582
11.313	0.1173083
11.314	0.07706978
11.315	0.03921573
11.316	0.004728203
11.317	-0.0256713
11.318	-0.05146887
11.319	-0.07220184
11.32	-0.08785909
11.321	-0.09855615
11.322	-0.1045233
11.323	-0.1062031
11.324	-0.1038403
11.325	-0.09845214
11.326	-0.09082932
11.327	-0.08163939
11.328	-0.07160647
11.329	-0.06103686
11.33	-0.05090933
11.331	-0.04181108
11.332	-0.03408538
11.333	-0.0279861
11.334	-0.02339803
11.335	-0.02056755
11.336	-0.01947554
11.337	-0.01993797
11.338	-0.02167237
11.339	-0.02428941
11.34	-0.02749324
11.341	-0.03097013
11.342	-0.03440692
11.343	-0.03748024
11.344	-0.03999051
11.345	-0.0417025
11.346	-0.0424973
11.347	-0.04233861
11.348	-0.0412331
11.349	-0.03935404
11.35	-0.03679419
11.351	-0.03371812
11.352	-0.03032368
11.353	-0.02680972
11.354	-0.02345784
11.355	-0.02044413
11.356	-0.01791813
11.357	-0.01598113
11.358	-0.01466798
11.359	-0.01404182
11.36	-0.01405786
11.361	-0.01462919
11.362	-0.01561507
11.363	-0.01681031
11.364	-0.01807069
11.365	-0.01918544
11.366	-0.01996935
11.367	-0.0202509
11.368	-0.0198652
11.369	-0.01874916
11.37	-0.0168253
11.371	-0.01408727
11.372	-0.01058954
11.373	-0.006443034
11.374	-0.001823468
11.375	0.003106214
11.376	0.008148022
11.377	0.01307147
11.378	0.01761855
11.379	0.02155241
11.38	0.02470181
11.381	0.02692288
11.382	0.02809687
11.383	0.02814119
11.384	0.02702807
11.385	0.02483432
11.386	0.02166751
11.387	0.01767033
11.388	0.01303785
11.389	0.007965337
11.39	0.002719898
11.391	-0.002455965
11.392	-0.00732901
11.393	-0.01166077
11.394	-0.01527766
11.395	-0.01801716
11.396	-0.01977651
11.397	-0.02049822
11.398	-0.0201699
11.399	-0.01883079
11.4	-0.01659056
11.401	-0.0135844
11.402	-0.009975146
11.403	-0.005968966
11.404	-0.001743827
11.405	0.002460561
11.406	0.006441732
11.407	0.01001549
11.408	0.01299744
11.409	0.01528768
11.41	0.01677826
11.411	0.01741796
11.412	0.01719368
11.413	0.01612436
11.414	0.01429023
11.415	0.01180329
11.416	0.00879208
11.417	0.005398795
11.418	0.001787727
11.419	-0.001885214
11.42	-0.005440139
11.421	-0.008729346
11.422	-0.01162601
11.423	-0.01401297
11.424	-0.01582773
11.425	-0.01701967
11.426	-0.01757584
11.427	-0.01750832
11.428	-0.01684991
11.429	-0.01568283
11.43	-0.01411634
11.431	-0.01225938
11.432	-0.01021425
11.433	-0.008077367
11.434	-0.005966181
11.435	-0.003999306
11.436	-0.002260431
11.437	-0.000795933
11.438	0.0003860517
11.439	0.00126347
11.44	0.001847725
11.441	0.002176033
11.442	0.0023149
11.443	0.002364517
11.444	0.002387169
11.445	0.002483631
11.446	0.002739055
11.447	0.003228943
11.448	0.004024703
11.449	0.00513652
11.45	0.006599124
11.451	0.008407059
11.452	0.01052208
11.453	0.01288069
11.454	0.01536644
11.455	0.01789723
11.456	0.02037043
11.457	0.02267203
11.458	0.02468994
11.459	0.02628583
11.46	0.02739509
11.461	0.02796497
11.462	0.02796738
11.463	0.02741778
11.464	0.02631037
11.465	0.02473252
11.466	0.02278061
11.467	0.02057583
11.468	0.0182807
11.469	0.01601643
11.47	0.01395674
11.471	0.01224816
11.472	0.01102158
11.473	0.01039464
11.474	0.01044978
11.475	0.01124504
11.476	0.01279183
11.477	0.01505015
11.478	0.01791173
11.479	0.02130533
11.48	0.02508644
11.481	0.0290933
11.482	0.03312027
11.483	0.03688952
11.484	0.04026455
11.485	0.04304681
11.486	0.04506918
11.487	0.04615751
11.488	0.04610685
11.489	0.04490956
11.49	0.04253318
11.491	0.0389923
11.492	0.03431747
11.493	0.02854508
11.494	0.02187875
11.495	0.01449708
11.496	0.006596811
11.497	-0.001621222
11.498	-0.009956592
11.499	-0.01811555
11.5	-0.02589338
11.501	-0.03309963
11.502	-0.0395645
11.503	-0.04515444
11.504	-0.0496895
11.505	-0.05316302
11.506	-0.05557411
11.507	-0.05694206
11.508	-0.05733886
11.509	-0.0567852
11.51	-0.05550157
11.511	-0.05366551
11.512	-0.0514368
11.513	-0.04899342
11.514	-0.04644746
11.515	-0.04404647
11.516	-0.04195517
11.517	-0.04027759
11.518	-0.03907605
11.519	-0.03838267
11.52	-0.03825645
11.521	-0.03868816
11.522	-0.03960223
11.523	-0.04085022
11.524	-0.04234731
11.525	-0.04395888
11.526	-0.0455434
11.527	-0.04693021
11.528	-0.04789641
11.529	-0.04837605
11.53	-0.04823529
11.531	-0.04738624
11.532	-0.04575305
11.533	-0.04324752
11.534	-0.03996307
11.535	-0.03592789
11.536	-0.03121757
11.537	-0.02592649
11.538	-0.02014965
11.539	-0.01411576
11.54	-0.007965422
11.541	-0.001852349
11.542	0.004073716
11.543	0.009683517
11.544	0.01477089
11.545	0.01926497
11.546	0.02309859
11.547	0.02622242
11.548	0.02862966
11.549	0.03024756
11.55	0.03117241
11.551	0.03148144
11.552	0.03125556
11.553	0.03061323
11.554	0.02958796
11.555	0.02836912
11.556	0.02709182
11.557	0.0258656
11.558	0.02480486
11.559	0.02394455
11.56	0.02341421
11.561	0.02328038
11.562	0.0235655
11.563	0.02425981
11.564	0.02532777
11.565	0.02675413
11.566	0.02848729
11.567	0.0304373
11.568	0.03246854
11.569	0.03449033
11.57	0.03639194
11.571	0.03806661
11.572	0.03939545
11.573	0.04023611
11.574	0.04053034
11.575	0.04020915
11.576	0.03923214
11.577	0.03757466
11.578	0.0352263
11.579	0.03224701
11.58	0.02870711
11.581	0.02469907
11.582	0.02033695
11.583	0.01576206
11.584	0.01113993
11.585	0.006626503
11.586	0.002372312
11.587	-0.001472628
11.588	-0.004760797
11.589	-0.007351097
11.59	-0.009173796
11.591	-0.01018005
11.592	-0.01034576
11.593	-0.009690422
11.594	-0.008217778
11.595	-0.006048739
11.596	-0.003304688
11.597	-0.0001275532
11.598	0.003290565
11.599	0.006833258
11.6	0.01028532
11.601	0.01346961
11.602	0.01621766
11.603	0.01834549
11.604	0.01978194
11.605	0.02042216
11.606	0.0202129
11.607	0.01913021
11.608	0.01717238
11.609	0.01442196
11.61	0.01097644
11.611	0.00695534
11.612	0.002496127
11.613	-0.002238515
11.614	-0.007071204
11.615	-0.01181934
11.616	-0.0163198
11.617	-0.02041968
11.618	-0.0239702
11.619	-0.02685176
11.62	-0.0289913
11.621	-0.0303448
11.622	-0.0308917
11.623	-0.03064315
11.624	-0.02962312
11.625	-0.02794186
11.626	-0.02570845
11.627	-0.02304023
11.628	-0.02008316
11.629	-0.01694879
11.63	-0.01382197
11.631	-0.01084964
11.632	-0.008159546
11.633	-0.00587741
11.634	-0.004073765
11.635	-0.002835391
11.636	-0.002205165
11.637	-0.002194117
11.638	-0.002782574
11.639	-0.003930528
11.64	-0.005561659
11.641	-0.007586658
11.642	-0.009898182
11.643	-0.01235667
11.644	-0.0148701
11.645	-0.0172986
11.646	-0.01952677
11.647	-0.02144414
11.648	-0.02292641
11.649	-0.02394481
11.65	-0.02444165
11.651	-0.02439272
11.652	-0.02378497
11.653	-0.02260375
11.654	-0.02092298
11.655	-0.01880211
11.656	-0.01631173
11.657	-0.01352036
11.658	-0.01049182
11.659	-0.007330224
11.66	-0.004121214
11.661	-0.0009393304
11.662	0.002151286
11.663	0.005092302
11.664	0.007830274
11.665	0.01033925
11.666	0.01259928
11.667	0.01458736
11.668	0.01627306
11.669	0.01764681
11.67	0.01873191
11.671	0.01953713
11.672	0.02004986
11.673	0.02023972
11.674	0.02009355
11.675	0.01963895
11.676	0.01888241
11.677	0.01781176
11.678	0.01640912
11.679	0.01466471
11.68	0.01261634
11.681	0.01029306
11.682	0.007726079
11.683	0.00496506
11.684	0.002049509
11.685	-0.0009464206
11.686	-0.003947789
11.687	-0.006864561
11.688	-0.009581042
11.689	-0.01201824
11.69	-0.0141011
11.691	-0.01575758
11.692	-0.0169076
11.693	-0.01746386
11.694	-0.01738653
11.695	-0.01667999
11.696	-0.0153551
11.697	-0.01342796
11.698	-0.01093186
11.699	-0.007921407
11.7	-0.004504693
11.701	-0.0007861869
11.702	0.003122285
11.703	0.007085514
11.704	0.01099197
11.705	0.01470861
11.706	0.01811948
11.707	0.02110977
11.708	0.02355789
11.709	0.02538553
11.71	0.02654696
11.711	0.02701254
11.712	0.02676226
11.713	0.02579503
11.714	0.02412691
11.715	0.0218466
11.716	0.01904068
11.717	0.01580502
11.718	0.01226678
11.719	0.008523517
11.72	0.0047379
11.721	0.001049066
11.722	-0.002406325
11.723	-0.005476849
11.724	-0.008062285
11.725	-0.01005573
11.726	-0.01138075
11.727	-0.01197954
11.728	-0.01181665
11.729	-0.01087758
11.73	-0.009210265
11.731	-0.006877375
11.732	-0.003966674
11.733	-0.0006148549
11.734	0.003088052
11.735	0.00696666
11.736	0.01086184
11.737	0.01460291
11.738	0.01798088
11.739	0.02088956
11.74	0.0231782
11.741	0.02473418
11.742	0.02545625
11.743	0.02524373
11.744	0.02409498
11.745	0.02202611
11.746	0.01908282
11.747	0.01533266
11.748	0.01087492
11.749	0.005845096
11.75	0.0004178432
11.751	-0.005234939
11.752	-0.01093124
11.753	-0.01646256
11.754	-0.02164892
11.755	-0.02631561
11.756	-0.03031527
11.757	-0.0335123
11.758	-0.03578239
11.759	-0.0370358
11.76	-0.03726555
11.761	-0.03648461
11.762	-0.03472994
11.763	-0.0320875
11.764	-0.02862156
11.765	-0.02452202
11.766	-0.01996406
11.767	-0.01513603
11.768	-0.01027483
11.769	-0.005532701
11.77	-0.001148721
11.771	0.002685745
11.772	0.005795273
11.773	0.008002134
11.774	0.009217042
11.775	0.009362544
11.776	0.008410268
11.777	0.006371757
11.778	0.003312623
11.779	-0.0006918132
11.78	-0.00547554
11.781	-0.01086046
11.782	-0.01663271
11.783	-0.02250665
11.784	-0.02830932
11.785	-0.03377916
11.786	-0.03869077
11.787	-0.04281076
11.788	-0.04586387
11.789	-0.04777535
11.79	-0.04843984
11.791	-0.04780285
11.792	-0.04581924
11.793	-0.04243721
11.794	-0.0378002
11.795	-0.03205386
11.796	-0.02536288
11.797	-0.01788898
11.798	-0.009790979
11.799	-0.001338544
11.8	0.007232501
11.801	0.01570681
11.802	0.02389046
11.803	0.03160774
11.804	0.03866402
11.805	0.04496667
11.806	0.05043958
11.807	0.05501449
11.808	0.05863599
11.809	0.06127388
11.81	0.06303524
11.811	0.06399688
11.812	0.06420043
11.813	0.06366811
11.814	0.06245387
11.815	0.06072826
11.816	0.05859516
11.817	0.05609509
11.818	0.05322487
11.819	0.05002356
11.82	0.04659211
11.821	0.04297892
11.822	0.0391857
11.823	0.03518038
11.824	0.03099858
11.825	0.02667383
11.826	0.0222341
11.827	0.01770215
11.828	0.01309362
11.829	0.008508036
11.83	0.003976358
11.831	-0.0004423226
11.832	-0.004670168
11.833	-0.008629657
11.834	-0.01216735
11.835	-0.01526156
11.836	-0.01786028
11.837	-0.01990045
11.838	-0.02134032
11.839	-0.02207799
11.84	-0.02217792
11.841	-0.02168077
11.842	-0.02062953
11.843	-0.01910513
11.844	-0.01713047
11.845	-0.01487191
11.846	-0.01246456
11.847	-0.01003815
11.848	-0.007742452
11.849	-0.005661397
11.85	-0.003946629
11.851	-0.002705234
11.852	-0.002016582
11.853	-0.001940779
11.854	-0.002475669
11.855	-0.003614469
11.856	-0.005315877
11.857	-0.007510038
11.858	-0.01009724
11.859	-0.01294026
11.86	-0.01589037
11.861	-0.01880249
11.862	-0.02153776
11.863	-0.02396704
11.864	-0.0259507
11.865	-0.02739134
11.866	-0.02822525
11.867	-0.02842982
11.868	-0.02803612
11.869	-0.02706824
11.87	-0.02562814
11.871	-0.02383377
11.872	-0.02182914
11.873	-0.01979398
11.874	-0.0178859
11.875	-0.0162966
11.876	-0.01518213
11.877	-0.01466465
11.878	-0.01482573
11.879	-0.01573733
11.88	-0.01742231
11.881	-0.01984771
11.882	-0.02291006
11.883	-0.02641411
11.884	-0.03022843
11.885	-0.03414408
11.886	-0.03794225
11.887	-0.04136631
11.888	-0.04410081
11.889	-0.04598621
11.89	-0.04683322
11.891	-0.04650463
11.892	-0.0448869
11.893	-0.04188079
11.894	-0.03756466
11.895	-0.03202835
11.896	-0.02541578
11.897	-0.01790861
11.898	-0.009725277
11.899	-0.001183417
11.9	0.007430695
11.901	0.01583396
11.902	0.02374878
11.903	0.03090797
11.904	0.03704549
11.905	0.04202132
11.906	0.04573268
11.907	0.04811299
11.908	0.04914932
11.909	0.04885281
11.91	0.04740669
11.911	0.04499007
11.912	0.04178664
11.913	0.03801199
11.914	0.03384744
11.915	0.02959914
11.916	0.02550097
11.917	0.02173607
11.918	0.01846382
11.919	0.0157548
11.92	0.01372257
11.921	0.01240175
11.922	0.01177355
11.923	0.01178518
11.924	0.01230711
11.925	0.01321722
11.926	0.01438089
11.927	0.01567028
11.928	0.016975
11.929	0.01815614
11.93	0.01909775
11.931	0.01973159
11.932	0.02004655
11.933	0.02009181
11.934	0.01990285
11.935	0.01954418
11.936	0.01911381
11.937	0.01874533
11.938	0.01860396
11.939	0.01881125
11.94	0.01948564
11.941	0.02071907
11.942	0.02257526
11.943	0.02508208
11.944	0.02821275
11.945	0.03191516
11.946	0.03608845
11.947	0.04057946
11.948	0.04517725
11.949	0.04968837
11.95	0.05392437
11.951	0.05768906
11.952	0.06076815
11.953	0.06292206
11.954	0.06407971
11.955	0.06419576
11.956	0.06325502
11.957	0.06123755
11.958	0.05808682
11.959	0.05408643
11.96	0.04944109
11.961	0.04436001
11.962	0.03897528
11.963	0.03326102
11.964	0.02767136
11.965	0.02235605
11.966	0.01742673
11.967	0.01282802
11.968	0.008221199
11.969	0.003819486
11.97	-0.0006244882
11.971	-0.005349427
11.972	-0.01071695
11.973	-0.0173017
11.974	-0.02519172
11.975	-0.03483953
11.976	-0.04654789
11.977	-0.06052856
11.978	-0.07690178
11.979	-0.09560422
11.98	-0.116658
11.981	-0.1398469
11.982	-0.1646494
11.983	-0.1901454
11.984	-0.2157647
11.985	-0.2408413
11.986	-0.2645656
11.987	-0.2858126
11.988	-0.3030324
11.989	-0.3155453
11.99	-0.3226565
11.991	-0.3237331
11.992	-0.3180257
11.993	-0.3046318
11.994	-0.2836624
11.995	-0.2553781
11.996	-0.2202017
11.997	-0.1786394
11.998	-0.1313355
11.999	-0.07957049
12	-0.02467389
12.001	0.03196111
12.002	0.08883219
12.003	0.144261
12.004	0.1965545
12.005	0.2444346
12.006	0.2866971
12.007	0.3221216
12.008	0.3494999
12.009	0.3679927
12.01	0.3776811
12.011	0.3786677
12.012	0.3710565
12.013	0.3551109
12.014	0.3313788
12.015	0.301414
12.016	0.2665458
12.017	0.2279737
12.018	0.1869703
12.019	0.1447736
12.02	0.1031425
12.021	0.06343327
12.022	0.02673588
12.023	-0.006011371
12.024	-0.03403713
12.025	-0.05678433
12.026	-0.07397488
12.027	-0.0855487
12.028	-0.09171236
12.029	-0.09261657
12.03	-0.08911906
12.031	-0.08199211
12.032	-0.07199472
12.033	-0.06004096
12.034	-0.04664734
12.035	-0.03305206
12.036	-0.02011702
12.037	-0.008483174
12.038	0.00125429
12.039	0.008999673
12.04	0.01423561
12.041	0.01679919
12.042	0.01674824
12.043	0.01426858
12.044	0.009810553
12.045	0.003700102
12.046	-0.003642093
12.047	-0.01174361
12.048	-0.02007958
12.049	-0.02819544
12.05	-0.03562774
12.051	-0.0420332
12.052	-0.04715272
12.053	-0.05076659
12.054	-0.05287412
12.055	-0.05344524
12.056	-0.05256643
12.057	-0.05038722
12.058	-0.04708535
12.059	-0.04297923
12.06	-0.03835155
12.061	-0.03346901
12.062	-0.02855804
12.063	-0.02379988
12.064	-0.01939532
12.065	-0.0154974
12.066	-0.01217815
12.067	-0.009433546
12.068	-0.007193833
12.069	-0.005396551
12.07	-0.003935511
12.071	-0.002685983
12.072	-0.001511828
12.073	-0.0002684101
12.074	0.00112684
12.075	0.0027933
12.076	0.004788498
12.077	0.007113919
12.078	0.009726012
12.079	0.01252474
12.08	0.01546317
12.081	0.01843464
12.082	0.02128159
12.083	0.02380939
12.084	0.02585892
12.085	0.02734373
12.086	0.02817348
12.087	0.02824992
12.088	0.02746957
12.089	0.02585386
12.09	0.02346704
12.091	0.02039082
12.092	0.01670478
12.093	0.01247367
12.094	0.007904144
12.095	0.003158331
12.096	-0.001610599
12.097	-0.006284314
12.098	-0.01080134
12.099	-0.01498745
12.1	-0.01879592
12.101	-0.02219908
12.102	-0.0252111
12.103	-0.0279096
12.104	-0.0302829
12.105	-0.03246012
12.106	-0.0345471
12.107	-0.03664071
12.108	-0.03884158
12.109	-0.04118635
12.11	-0.04379999
12.111	-0.04673534
12.112	-0.0499744
12.113	-0.05342933
12.114	-0.05702013
12.115	-0.06070069
12.116	-0.06436018
12.117	-0.06780894
12.118	-0.07077183
12.119	-0.07309889
12.12	-0.07465944
12.121	-0.07531551
12.122	-0.07489598
12.123	-0.07318792
12.124	-0.07019845
12.125	-0.06594474
12.126	-0.0604772
12.127	-0.05384977
12.128	-0.04610758
12.129	-0.03752612
12.13	-0.02832321
12.131	-0.01873554
12.132	-0.008989762
12.133	0.0007212144
12.134	0.01003182
12.135	0.01875721
12.136	0.02672125
12.137	0.03378555
12.138	0.03988799
12.139	0.04484596
12.14	0.04874753
12.141	0.05166614
12.142	0.0536917
12.143	0.05497542
12.144	0.05555733
12.145	0.0557292
12.146	0.05570043
12.147	0.05562801
12.148	0.05565351
12.149	0.05581914
12.15	0.05631923
12.151	0.05723214
12.152	0.05854055
12.153	0.06015264
12.154	0.06195015
12.155	0.06388045
12.156	0.06582419
12.157	0.06759896
12.158	0.06896604
12.159	0.06977
12.16	0.06988995
12.161	0.06921986
12.162	0.06765795
12.163	0.06510561
12.164	0.06160157
12.165	0.05719955
12.166	0.0519969
12.167	0.04612151
12.168	0.03972684
12.169	0.03305892
12.17	0.02632096
12.171	0.01972392
12.172	0.01348024
12.173	0.007794092
12.174	0.002886103
12.175	-0.001141852
12.176	-0.004209392
12.177	-0.006261078
12.178	-0.007285254
12.179	-0.007263535
12.18	-0.006331753
12.181	-0.004619898
12.182	-0.002266251
12.183	0.0005522038
12.184	0.003732373
12.185	0.007039356
12.186	0.01029283
12.187	0.01333516
12.188	0.0159941
12.189	0.01824251
12.19	0.01996328
12.191	0.02110042
12.192	0.02161721
12.193	0.02146156
12.194	0.02074592
12.195	0.01951193
12.196	0.01782192
12.197	0.01572041
12.198	0.01320847
12.199	0.0104344
12.2	0.007467402
12.201	0.004362912
12.202	0.001133896
12.203	-0.002266617
12.204	-0.00575201
12.205	-0.009328274
12.206	-0.01300401
12.207	-0.01681099
12.208	-0.02081796
12.209	-0.02496672
12.21	-0.02929752
12.211	-0.03381644
12.212	-0.03851053
12.213	-0.0433616
12.214	-0.04825371
12.215	-0.05317649
12.216	-0.05806742
12.217	-0.06282207
12.218	-0.06731015
12.219	-0.07136749
12.22	-0.0749512
12.221	-0.07798126
12.222	-0.08034639
12.223	-0.08192207
12.224	-0.08262103
12.225	-0.08247983
12.226	-0.08151786
12.227	-0.07973917
12.228	-0.07714726
12.229	-0.0738246
12.23	-0.06992926
12.231	-0.06559979
12.232	-0.0609516
12.233	-0.05607865
12.234	-0.05116801
12.235	-0.04637929
12.236	-0.04184143
12.237	-0.03763875
12.238	-0.03379197
12.239	-0.03044249
12.24	-0.02759539
12.241	-0.02524156
12.242	-0.02332699
12.243	-0.02171335
12.244	-0.02044835
12.245	-0.01938171
12.246	-0.0183963
12.247	-0.01735907
12.248	-0.01606875
12.249	-0.01457669
12.25	-0.01272838
12.251	-0.01044237
12.252	-0.007651207
12.253	-0.004249159
12.254	-0.0003853622
12.255	0.003981444
12.256	0.008821042
12.257	0.01408242
12.258	0.01973278
12.259	0.02556673
12.26	0.03154876
12.261	0.03759844
12.262	0.04361583
12.263	0.04950016
12.264	0.05509438
12.265	0.06038081
12.266	0.06530964
12.267	0.06979793
12.268	0.0737341
12.269	0.07703863
12.27	0.07973592
12.271	0.0818126
12.272	0.08320565
12.273	0.0838078
12.274	0.08358666
12.275	0.08259079
12.276	0.08083351
12.277	0.07828758
12.278	0.07489997
12.279	0.07070491
12.28	0.06579746
12.281	0.06025755
12.282	0.05415457
12.283	0.0475625
12.284	0.04063738
12.285	0.03353721
12.286	0.02642048
12.287	0.0194491
12.288	0.01278453
12.289	0.006659682
12.29	0.001198666
12.291	-0.003473288
12.292	-0.007243472
12.293	-0.01004561
12.294	-0.01173107
12.295	-0.01236533
12.296	-0.0120035
12.297	-0.01072692
12.298	-0.008697872
12.299	-0.005950141
12.3	-0.002750483
12.301	0.0006800914
12.302	0.00411579
12.303	0.007274506
12.304	0.01004712
12.305	0.01217428
12.306	0.01347659
12.307	0.01381094
12.308	0.01304397
12.309	0.01119598
12.31	0.008247596
12.311	0.004248787
12.312	-0.0006989565
12.313	-0.006441315
12.314	-0.0127667
12.315	-0.01945768
12.316	-0.02628356
12.317	-0.03299138
12.318	-0.03929411
12.319	-0.04495645
12.32	-0.04977735
12.321	-0.05359038
12.322	-0.05624606
12.323	-0.05761124
12.324	-0.05764368
12.325	-0.05639404
12.326	-0.05393948
12.327	-0.05037813
12.328	-0.04584505
12.329	-0.04051962
12.33	-0.03466837
12.331	-0.0285319
12.332	-0.02233616
12.333	-0.01631117
12.334	-0.01066503
12.335	-0.005612282
12.336	-0.001308831
12.337	0.002133693
12.338	0.004644584
12.339	0.006178965
12.34	0.006773808
12.341	0.006495035
12.342	0.00543838
12.343	0.00374769
12.344	0.001522095
12.345	-0.001026294
12.346	-0.003720472
12.347	-0.006395491
12.348	-0.008866801
12.349	-0.01107036
12.35	-0.0128522
12.351	-0.0141244
12.352	-0.0148298
12.353	-0.01491221
12.354	-0.01444122
12.355	-0.01342892
12.356	-0.01192469
12.357	-0.009987663
12.358	-0.007672469
12.359	-0.005094427
12.36	-0.002333986
12.361	0.000534011
12.362	0.003445421
12.363	0.006341995
12.364	0.00917394
12.365	0.01190548
12.366	0.01451302
12.367	0.01697139
12.368	0.01924037
12.369	0.02131314
12.37	0.02318553
12.371	0.02484358
12.372	0.0262486
12.373	0.02733316
12.374	0.02805402
12.375	0.02839231
12.376	0.02831295
12.377	0.02776454
12.378	0.02669396
12.379	0.02505764
12.38	0.02287638
12.381	0.02017066
12.382	0.01697623
12.383	0.01336757
12.384	0.009412206
12.385	0.005240493
12.386	0.0009864356
12.387	-0.003194248
12.388	-0.007112566
12.389	-0.0106028
12.39	-0.01351087
12.391	-0.01569963
12.392	-0.01704484
12.393	-0.01744933
12.394	-0.01682606
12.395	-0.01519354
12.396	-0.01259593
12.397	-0.009121618
12.398	-0.00493702
12.399	-0.000153924
12.4	0.004988176
12.401	0.01025823
12.402	0.01539886
12.403	0.02009404
12.404	0.02415917
12.405	0.02735418
12.406	0.02949275
12.407	0.03041039
12.408	0.02995365
12.409	0.02811
12.41	0.02490256
12.411	0.02040761
12.412	0.01474467
12.413	0.008089054
12.414	0.0006713857
12.415	-0.007227343
12.416	-0.01532703
12.417	-0.02333394
12.418	-0.03092205
12.419	-0.03782657
12.42	-0.04380481
12.421	-0.0486615
12.422	-0.05222566
12.423	-0.05434534
12.424	-0.05498272
12.425	-0.05419621
12.426	-0.05207367
12.427	-0.04871954
12.428	-0.04426602
12.429	-0.03892253
12.43	-0.03298299
12.431	-0.02670669
12.432	-0.02032063
12.433	-0.01403329
12.434	-0.008064931
12.435	-0.002630007
12.436	0.002124813
12.437	0.006112806
12.438	0.009304223
12.439	0.01167635
12.44	0.01329175
12.441	0.0142374
12.442	0.01462237
12.443	0.01458666
12.444	0.01424228
12.445	0.0137921
12.446	0.01338703
12.447	0.01313241
12.448	0.01310236
12.449	0.01331421
12.45	0.01384149
12.451	0.01468203
12.452	0.01576979
12.453	0.01699193
12.454	0.01820053
12.455	0.01929868
12.456	0.02016487
12.457	0.02066682
12.458	0.02068088
12.459	0.0200878
12.46	0.01884251
12.461	0.01693068
12.462	0.01438307
12.463	0.01129298
12.464	0.007752842
12.465	0.003915428
12.466	-4.535491e-005
12.467	-0.003921571
12.468	-0.007465132
12.469	-0.01047287
12.47	-0.01275794
12.471	-0.01416415
12.472	-0.01456104
12.473	-0.01385519
12.474	-0.01200372
12.475	-0.00905364
12.476	-0.005095278
12.477	-0.0002729545
12.478	0.005191548
12.479	0.01110128
12.48	0.01717872
12.481	0.0231548
12.482	0.02874385
12.483	0.0336235
12.484	0.03758679
12.485	0.04042968
12.486	0.04200626
12.487	0.04220489
12.488	0.04094569
12.489	0.03826901
12.49	0.03428475
12.491	0.02914199
12.492	0.02302416
12.493	0.01616392
12.494	0.00882429
12.495	0.00131621
12.496	-0.006075949
12.497	-0.01307902
12.498	-0.01941575
12.499	-0.02486639
12.5	-0.02925186
12.501	-0.03245059
12.502	-0.03438225
12.503	-0.0350105
12.504	-0.03435498
12.505	-0.03254601
12.506	-0.02972946
12.507	-0.0260694
12.508	-0.02177033
12.509	-0.01701913
12.51	-0.01210223
12.511	-0.007254187
12.512	-0.002678574
12.513	0.001427528
12.514	0.004938289
12.515	0.007702588
12.516	0.009639151
12.517	0.01071644
12.518	0.01094452
12.519	0.01037667
12.52	0.009107922
12.521	0.00725442
12.522	0.004951832
12.523	0.002366974
12.524	-0.0003690258
12.525	-0.003069622
12.526	-0.005587367
12.527	-0.007796765
12.528	-0.009574585
12.529	-0.01088217
12.53	-0.01164951
12.531	-0.0118565
12.532	-0.01151202
12.533	-0.01064073
12.534	-0.00932909
12.535	-0.007653587
12.536	-0.005702769
12.537	-0.003567963
12.538	-0.001342829
12.539	0.000877462
12.54	0.003003125
12.541	0.004966521
12.542	0.006716306
12.543	0.008208738
12.544	0.009437001
12.545	0.01039736
12.546	0.0111018
12.547	0.01156521
12.548	0.01179602
12.549	0.01184225
12.55	0.01174728
12.551	0.01154333
12.552	0.01124106
12.553	0.01082476
12.554	0.01032008
12.555	0.009741949
12.556	0.009087536
12.557	0.008328775
12.558	0.007409753
12.559	0.006336127
12.56	0.005097045
12.561	0.003681597
12.562	0.002069583
12.563	0.0002262332
12.564	-0.001810824
12.565	-0.004034573
12.566	-0.006422418
12.567	-0.008946176
12.568	-0.01157894
12.569	-0.01425117
12.57	-0.01693915
12.571	-0.01960335
12.572	-0.02219088
12.573	-0.02463736
12.574	-0.02689327
12.575	-0.02895153
12.576	-0.0307915
12.577	-0.03236921
12.578	-0.03361244
12.579	-0.03450827
12.58	-0.03506572
12.581	-0.03527863
12.582	-0.03511099
12.583	-0.03449329
12.584	-0.03342658
12.585	-0.03192162
12.586	-0.02998
12.587	-0.02758718
12.588	-0.02471787
12.589	-0.02140272
12.59	-0.01768275
12.591	-0.01360489
12.592	-0.009226692
12.593	-0.004626563
12.594	9.04616e-005
12.595	0.004826513
12.596	0.009471418
12.597	0.01389409
12.598	0.01794117
12.599	0.02146544
12.6	0.02438078
12.601	0.0265979
12.602	0.02802352
12.603	0.02857604
12.604	0.02819511
12.605	0.02693304
12.606	0.02484268
12.607	0.02198867
12.608	0.01847289
12.609	0.01439724
12.61	0.009963955
12.611	0.005355908
12.612	0.000754188
12.613	-0.00364226
12.614	-0.00768131
12.615	-0.01118775
12.616	-0.01402744
12.617	-0.0160916
12.618	-0.01729017
12.619	-0.01761751
12.62	-0.01710844
12.621	-0.01582407
12.622	-0.01383882
12.623	-0.01123732
12.624	-0.008200872
12.625	-0.004925554
12.626	-0.001585592
12.627	0.001684611
12.628	0.004805542
12.629	0.00759321
12.63	0.009943669
12.631	0.01180121
12.632	0.01318734
12.633	0.0142294
12.634	0.01492272
12.635	0.01540507
12.636	0.01582301
12.637	0.01636502
12.638	0.01728743
12.639	0.01868441
12.64	0.02076141
12.641	0.02365916
12.642	0.02747597
12.643	0.0322775
12.644	0.03798901
12.645	0.04458461
12.646	0.05194871
12.647	0.05988078
12.648	0.06809506
12.649	0.07627634
12.65	0.08416531
12.651	0.09146757
12.652	0.09784535
12.653	0.10292
12.654	0.1064606
12.655	0.1083442
12.656	0.108476
12.657	0.1067665
12.658	0.1031234
12.659	0.09778574
12.66	0.09103407
12.661	0.08315909
12.662	0.07440049
12.663	0.06488983
12.664	0.05524696
12.665	0.0458594
12.666	0.03705387
12.667	0.02897339
12.668	0.02145294
12.669	0.01494551
12.67	0.009362703
12.671	0.004569541
12.672	0.0002181086
12.673	-0.004396191
12.674	-0.009311598
12.675	-0.0151561
12.676	-0.02243983
12.677	-0.03168824
12.678	-0.0435137
12.679	-0.05804681
12.68	-0.07572399
12.681	-0.09668802
12.682	-0.1207965
12.683	-0.1475688
12.684	-0.176566
12.685	-0.2073224
12.686	-0.2391027
12.687	-0.2707578
12.688	-0.300597
12.689	-0.327665
12.69	-0.3509348
12.691	-0.369347
12.692	-0.3815938
12.693	-0.3860325
12.694	-0.3821834
12.695	-0.3697114
12.696	-0.3484618
12.697	-0.3183112
12.698	-0.279198
12.699	-0.2320367
12.7	-0.177966
12.701	-0.1182725
12.702	-0.05439402
12.703	0.01197979
12.704	0.078861
12.705	0.1444193
12.706	0.2068772
12.707	0.2644011
12.708	0.3150672
12.709	0.3572767
12.71	0.3902614
12.711	0.4133727
12.712	0.4260075
12.713	0.4277338
12.714	0.4185495
12.715	0.3996796
12.716	0.3722411
12.717	0.3373052
12.718	0.2961379
12.719	0.2500779
12.72	0.2013967
12.721	0.1519421
12.722	0.1033032
12.723	0.05701179
12.724	0.01434323
12.725	-0.02331027
12.726	-0.05501571
12.727	-0.0801653
12.728	-0.09844541
12.729	-0.1097057
12.73	-0.1144213
12.731	-0.1131716
12.732	-0.1066489
12.733	-0.09579902
12.734	-0.08131513
12.735	-0.06472494
12.736	-0.04721513
12.737	-0.02977271
12.738	-0.01338656
12.739	0.001500406
12.74	0.01388284
12.741	0.02323072
12.742	0.0293214
12.743	0.03209809
12.744	0.03193309
12.745	0.02899917
12.746	0.02369129
12.747	0.01653429
12.748	0.008144669
12.749	-0.0007966865
12.75	-0.009634727
12.751	-0.01782438
12.752	-0.02492876
12.753	-0.030592
12.754	-0.03461992
12.755	-0.03683054
12.756	-0.03723406
12.757	-0.03599356
12.758	-0.03339287
12.759	-0.02980157
12.76	-0.02559484
12.761	-0.02117287
12.762	-0.01694355
12.763	-0.01331635
12.764	-0.0106047
12.765	-0.009093
12.766	-0.008939422
12.767	-0.01019011
12.768	-0.01279185
12.769	-0.01657174
12.77	-0.02133785
12.771	-0.02681264
12.772	-0.03264873
12.773	-0.03844036
12.774	-0.0438103
12.775	-0.04842919
12.776	-0.05201606
12.777	-0.05433274
12.778	-0.05518367
12.779	-0.05452469
12.78	-0.05238768
12.781	-0.04888591
12.782	-0.04419283
12.783	-0.03853129
12.784	-0.03225139
12.785	-0.02569917
12.786	-0.01920932
12.787	-0.0130845
12.788	-0.007577087
12.789	-0.00298477
12.79	0.0005211809
12.791	0.002848885
12.792	0.004002478
12.793	0.004104533
12.794	0.003232945
12.795	0.001628635
12.796	-0.0004486656
12.797	-0.002702291
12.798	-0.004779427
12.799	-0.006442304
12.8	-0.007367564
12.801	-0.007323411
12.802	-0.006152212
12.803	-0.003761721
12.804	-0.0001845657
12.805	0.00454913
12.806	0.01030248
12.807	0.01683843
12.808	0.02382094
12.809	0.03089886
12.81	0.03774194
12.811	0.04401048
12.812	0.04934888
12.813	0.05339057
12.814	0.05588031
12.815	0.05666693
12.816	0.05566957
12.817	0.0528695
12.818	0.04832408
12.819	0.0422088
12.82	0.03481487
12.821	0.02646525
12.822	0.01751651
12.823	0.008371586
12.824	-0.0005543456
12.825	-0.008846645
12.826	-0.01615545
12.827	-0.02218693
12.828	-0.02670611
12.829	-0.02954218
12.83	-0.03066126
12.831	-0.03010786
12.832	-0.02800352
12.833	-0.02456636
12.834	-0.02002864
12.835	-0.01477403
12.836	-0.009163535
12.837	-0.003549661
12.838	0.001701235
12.839	0.006310864
12.84	0.009955018
12.841	0.01242307
12.842	0.01359757
12.843	0.01344305
12.844	0.0120199
12.845	0.009432144
12.846	0.00586165
12.847	0.001558991
12.848	-0.003154477
12.849	-0.007972661
12.85	-0.01256167
12.851	-0.01662637
12.852	-0.01990145
12.853	-0.02214374
12.854	-0.02322645
12.855	-0.02305439
12.856	-0.02162148
12.857	-0.01899391
12.858	-0.0153034
12.859	-0.01078106
12.86	-0.00568077
12.861	-0.0002771215
12.862	0.005146113
12.863	0.01030378
12.864	0.01489478
12.865	0.01868037
12.866	0.02148534
12.867	0.02320475
12.868	0.02381784
12.869	0.02331032
12.87	0.02179039
12.871	0.01941398
12.872	0.01639629
12.873	0.01302901
12.874	0.009548631
12.875	0.006273907
12.876	0.003478155
12.877	0.001404934
12.878	0.0002761182
12.879	0.0002246975
12.88	0.001368822
12.881	0.003733069
12.882	0.007251858
12.883	0.01175885
12.884	0.01708353
12.885	0.02299122
12.886	0.02921008
12.887	0.03540999
12.888	0.04118007
12.889	0.04625244
12.89	0.05033301
12.891	0.05318002
12.892	0.05456832
12.893	0.05427273
12.894	0.05228332
12.895	0.04861831
12.896	0.04336456
12.897	0.0366505
12.898	0.0286433
12.899	0.01966581
12.9	0.01004438
12.901	0.000108567
12.902	-0.009816673
12.903	-0.01941214
12.904	-0.02831023
12.905	-0.036249
12.906	-0.04301798
12.907	-0.04845974
12.908	-0.05248714
12.909	-0.05500026
12.91	-0.05610155
12.911	-0.05591151
12.912	-0.05458317
12.913	-0.05233766
12.914	-0.04933095
12.915	-0.04591492
12.916	-0.04237126
12.917	-0.03894112
12.918	-0.03586142
12.919	-0.03326441
12.92	-0.03138075
12.921	-0.03032961
12.922	-0.03014402
12.923	-0.03078663
12.924	-0.0321825
12.925	-0.03425406
12.926	-0.03686564
12.927	-0.03982178
12.928	-0.04285444
12.929	-0.04580499
12.93	-0.04846371
12.931	-0.05064946
12.932	-0.05217621
12.933	-0.05282148
12.934	-0.05258303
12.935	-0.05139185
12.936	-0.04923897
12.937	-0.04612817
12.938	-0.04204268
12.939	-0.03718902
12.94	-0.03168183
12.941	-0.02566243
12.942	-0.01926038
12.943	-0.01256875
12.944	-0.005837522
12.945	0.0008143191
12.946	0.007272421
12.947	0.01344901
12.948	0.01930116
12.949	0.02468708
12.95	0.02962296
12.951	0.03411183
12.952	0.03815653
12.953	0.04177917
12.954	0.04493174
12.955	0.04772315
12.956	0.05020732
12.957	0.05239527
12.958	0.05427768
12.959	0.05580872
12.96	0.05707534
12.961	0.05809581
12.962	0.05882976
12.963	0.05919862
12.964	0.05914279
12.965	0.05869781
12.966	0.05785637
12.967	0.05657193
12.968	0.05477146
12.969	0.05245097
12.97	0.04965281
12.971	0.04641099
12.972	0.04274879
12.973	0.03868209
12.974	0.03431039
12.975	0.02971886
12.976	0.02500009
12.977	0.02024845
12.978	0.01555288
12.979	0.01107023
12.98	0.006876212
12.981	0.003054087
12.982	-0.0003153967
12.983	-0.003172967
12.984	-0.005409379
12.985	-0.007047627
12.986	-0.008098618
12.987	-0.008577812
12.988	-0.008532371
12.989	-0.007962087
12.99	-0.007003576
12.991	-0.005763306
12.992	-0.004337685
12.993	-0.002837934
12.994	-0.001321469
12.995	6.604206e-005
12.996	0.00122591
12.997	0.002090089
12.998	0.00260691
12.999	0.002777125
13	0.002573706
13.001	0.002007899
13.002	0.001119451
13.003	-3.010353e-005
13.004	-0.001339213
13.005	-0.002717777
13.006	-0.004072933
13.007	-0.005317846
13.008	-0.006381694
13.009	-0.007155849
13.01	-0.007577866
13.011	-0.007611094
13.012	-0.007260703
13.013	-0.006592505
13.014	-0.00560643
13.015	-0.004381922
13.016	-0.003012693
13.017	-0.001630842
13.018	-0.0004271441
13.019	0.0005115225
13.02	0.001036006
13.021	0.001023963
13.022	0.0003585775
13.023	-0.001079489
13.024	-0.003313045
13.025	-0.006373822
13.026	-0.01024404
13.027	-0.01485961
13.028	-0.02009993
13.029	-0.02582943
13.03	-0.03189158
13.031	-0.03810317
13.032	-0.0442346
13.033	-0.04999133
13.034	-0.05517513
13.035	-0.05959386
13.036	-0.06307088
13.037	-0.06541591
13.038	-0.0664159
13.039	-0.06601467
13.04	-0.06421008
13.041	-0.06102859
13.042	-0.05650702
13.043	-0.05069975
13.044	-0.04379299
13.045	-0.03602214
13.046	-0.02762221
13.047	-0.01882691
13.048	-0.009878331
13.049	-0.00108387
13.05	0.007290607
13.051	0.01501238
13.052	0.02187983
13.053	0.02773207
13.054	0.03237793
13.055	0.03578856
13.056	0.03795663
13.057	0.03890931
13.058	0.03874262
13.059	0.03749978
13.06	0.03543542
13.061	0.03276631
13.062	0.02970031
13.063	0.02647658
13.064	0.02324725
13.065	0.02030837
13.066	0.01786434
13.067	0.01605479
13.068	0.01497593
13.069	0.0146604
13.07	0.01516497
13.071	0.01646589
13.072	0.01846485
13.073	0.02098388
13.074	0.02387687
13.075	0.0269529
13.076	0.03001342
13.077	0.03283454
13.078	0.03514911
13.079	0.03681885
13.08	0.03767167
13.081	0.03759176
13.082	0.03649381
13.083	0.03430996
13.084	0.0311118
13.085	0.02696521
13.086	0.02198665
13.087	0.0163287
13.088	0.01017821
13.089	0.003779689
13.09	-0.002646925
13.091	-0.008885568
13.092	-0.01472122
13.093	-0.01993887
13.094	-0.02434949
13.095	-0.02784447
13.096	-0.03034717
13.097	-0.03180601
13.098	-0.03220401
13.099	-0.03154994
13.1	-0.02996974
13.101	-0.02758988
13.102	-0.02454535
13.103	-0.0210048
13.104	-0.01709179
13.105	-0.0130335
13.106	-0.009010105
13.107	-0.005181924
13.108	-0.001720416
13.109	0.00130559
13.11	0.003771415
13.111	0.005606006
13.112	0.006760728
13.113	0.007189567
13.114	0.0069387
13.115	0.006046454
13.116	0.004568493
13.117	0.002561938
13.118	8.589125e-005
13.119	-0.00276667
13.12	-0.005884665
13.121	-0.009174442
13.122	-0.01255441
