0.000000e+00
0.000000e+00
-1.263428e-03
-1.118561e-01
-5.300903e-02
-7.583923e-02
9.360352e-02
-5.569458e-03
3.145142e-02
-7.029114e-02
-1.560150e-01
-2.615967e-02
-8.621216e-03
8.981628e-02
-8.033447e-02
-2.926636e-03
-3.368835e-02
-9.451904e-02
-6.503601e-02
-1.175537e-02
-1.220184e-01
4.719543e-02
1.897583e-02
2.169800e-02
-1.876770e-01
-1.261932e-01
4.169922e-02
-1.432587e-01
1.655579e-01
-4.692993e-02
-1.059784e-01
-1.486633e-01
-1.199036e-02
2.581177e-02
-1.764557e-01
7.516479e-02
1.725159e-02
-1.048340e-01
-8.211975e-02
-1.733398e-03
-1.843201e-01
-4.458618e-02
9.969788e-02
8.026428e-02
-1.984650e-01
-2.733765e-02
-8.666992e-04
-1.778015e-01
1.106262e-02
7.664490e-02
-5.520935e-02
-1.187744e-01
1.109528e-01
-1.082977e-01
-2.049652e-01
-1.525879e-04
1.329224e-01
-9.162903e-02
-3.278503e-02
8.406067e-02
-2.625824e-01
-9.083862e-02
8.853455e-02
8.335571e-02
-1.809052e-01
2.825012e-02
9.269104e-02
-1.411469e-01
1.894836e-02
1.397705e-01
-1.569519e-01
-2.082489e-01
8.021851e-02
-3.707886e-02
-4.233093e-02
-2.844543e-02
1.622681e-01
-2.546112e-01
-1.069031e-01
1.106079e-01
-1.762634e-01
1.000366e-02
2.570190e-02
7.557983e-02
-2.191498e-01
-6.987305e-02
2.954407e-02
-1.681519e-01
5.831909e-03
1.406677e-01
-1.199524e-01
-1.384308e-01
-1.440125e-02
-9.678345e-02
-6.890259e-02
-1.592834e-01
2.221161e-01
-2.406158e-01
1.347351e-02
-2.652283e-02
-2.219116e-01
-5.947571e-02
-1.183838e-01
2.091583e-01
-2.046539e-01
-4.660645e-02
-8.912964e-02
-1.787750e-01
-7.701721e-02
3.390198e-02
-5.464783e-02
-1.017212e-01
-4.915771e-02
-1.048553e-01
-8.398743e-02
-2.371094e-01
1.155304e-01
-1.733002e-01
4.972229e-02
-4.861145e-02
-1.238586e-01
-1.341064e-01
-1.677063e-01
4.766846e-02
-9.447327e-02
-2.099609e-02
-6.259155e-02
-6.671753e-02
-2.332092e-01
-1.025085e-02
-1.270447e-01
-4.913330e-03
-6.136169e-02
-6.125488e-02
-8.386230e-03
-2.198120e-01
1.033234e-01
-1.081055e-01
-5.523071e-02
-5.512695e-02
-1.115723e-01
1.055298e-02
-1.062408e-01
8.648682e-03
-9.647217e-02
-1.221680e-01
5.682373e-03
-2.001648e-02
-1.251343e-01
-1.024475e-02
-1.270386e-01
-4.910278e-03
-6.135864e-02
-6.125183e-02
-8.383179e-03
-2.198090e-01
1.033264e-01
-1.081024e-01
-5.523071e-02
-5.512695e-02
-1.115723e-01
1.055603e-02
-1.062408e-01
8.651733e-03
-9.646912e-02
-1.221680e-01
5.682373e-03
-2.001648e-02
-1.251343e-01
-1.024475e-02
-1.270386e-01
-4.910278e-03
-6.135864e-02
-6.125183e-02
-8.383179e-03
-2.198090e-01
1.033264e-01
-1.081024e-01
-5.523071e-02
-5.512695e-02
-1.115723e-01
1.055603e-02
-1.062408e-01
8.651733e-03
-9.646912e-02
-1.221680e-01
5.682373e-03
-2.001648e-02
-1.251343e-01
-1.024475e-02
-1.270386e-01
-4.910278e-03
-6.135864e-02
-6.125183e-02
-8.383179e-03
-2.198090e-01
1.033264e-01
-1.081024e-01
-5.523071e-02
-5.512695e-02
-1.115723e-01
1.055603e-02
-1.062408e-01
8.651733e-03
-9.646912e-02
-1.221680e-01
5.682373e-03
-2.001648e-02
-1.251343e-01
-1.024475e-02
-1.270386e-01
-4.910278e-03
-6.135864e-02
-6.125183e-02
-8.383179e-03
-2.198090e-01
1.033264e-01
-1.081024e-01
-5.523071e-02
-5.512695e-02
-1.115723e-01
1.055603e-02
-1.062408e-01
8.651733e-03
-9.646912e-02
-1.221741e-01
5.691528e-03
-1.994629e-02
-1.249298e-01
-9.884644e-03
-1.266174e-01
-4.620361e-03
-6.145935e-02
-6.189880e-02
-9.533691e-03
-2.211578e-01
1.023315e-01
-1.081390e-01
-5.383911e-02
-5.227356e-02
-1.078064e-01
1.400146e-02
-1.049713e-01
5.499268e-03
-1.064606e-01
-1.412811e-01
-2.460327e-02
-6.318970e-02
-1.825592e-01
-8.291626e-02
-2.154633e-01
-1.091248e-01
-1.808929e-01
-1.952423e-01
-1.555786e-01
-3.786041e-01
-6.525574e-02
-2.844757e-01
-2.374237e-01
-2.410919e-01
-2.992218e-01
-1.765961e-01
-2.905701e-01
-1.705597e-01
-2.682373e-01
-2.843475e-01
-1.449249e-01
-1.572174e-01
-2.473602e-01
-1.160217e-01
-2.151276e-01
-7.410583e-02
-1.105408e-01
-8.943176e-02
-1.464233e-02
-2.035614e-01
1.424591e-01
-4.595032e-02
2.995300e-02
5.311890e-02
1.970520e-02
1.649292e-01
7.126465e-02
2.094025e-01
1.276581e-01
1.253418e-01
2.764069e-01
2.733673e-01
1.901093e-01
3.257721e-01
2.284363e-01
3.685181e-01
3.282440e-01
3.427307e-01
4.081512e-01
2.074951e-01
5.395813e-01
3.349884e-01
3.923187e-01
3.940704e-01
3.362610e-01
4.541077e-01
3.305084e-01
4.369781e-01
3.226868e-01
2.880035e-01
4.075867e-01
3.743835e-01
2.621674e-01
3.693359e-01
2.432465e-01
3.535431e-01
2.821960e-01
2.642029e-01
2.955780e-01
5.943604e-02
3.546234e-01
1.122528e-01
1.314362e-01
9.516296e-02
-4.882813e-05
8.108215e-02
-7.837524e-02
-7.217407e-03
-1.565735e-01
-2.262939e-01
-1.417633e-01
-2.093994e-01
-3.546844e-01
-2.778503e-01
-4.304443e-01
-3.419708e-01
-4.300232e-01
-4.598969e-01
-4.356018e-01
-6.744812e-01
-3.778381e-01
-6.148621e-01
-5.869812e-01
-6.112396e-01
-6.915497e-01
-5.926727e-01
-7.320038e-01
-6.390076e-01
-7.651184e-01
-8.106567e-01
-7.009308e-01
-7.425598e-01
-8.611542e-01
-7.568878e-01
-8.812836e-01
-7.634613e-01
-8.208649e-01
-8.184479e-01
-7.598877e-01
-9.622314e-01
-6.265381e-01
-8.220886e-01
-7.503723e-01
-7.285706e-01
-7.607117e-01
-6.118134e-01
-6.996460e-01
-5.539734e-01
-6.264130e-01
-6.175018e-01
-4.528900e-01
-4.394928e-01
-5.030426e-01
-3.433197e-01
-4.112885e-01
-2.350189e-01
-2.305939e-01
-1.615173e-01
-3.007813e-02
-1.527802e-01
2.697571e-01
1.681763e-01
3.408905e-01
4.700745e-01
5.502106e-01
8.148621e-01
8.443176e-01
1.107394e+00
1.150095e+00
1.269006e+00
1.535519e+00
1.639340e+00
1.652524e+00
1.872018e+00
1.844144e+00
2.037650e+00
2.033194e+00
2.065549e+00
2.130151e+00
1.910471e+00
2.205676e+00
1.947202e+00
1.935587e+00
1.854816e+00
1.703601e+00
1.718750e+00
1.484711e+00
1.474280e+00
1.237140e+00
1.075156e+00
1.063806e+00
8.976288e-01
6.518982e-01
6.265045e-01
3.708130e-01
3.556824e-01
1.644745e-01
3.233643e-02
-4.476318e-02
-3.838745e-01
-1.863190e-01
-5.204071e-01
-5.873413e-01
-7.041290e-01
-8.745911e-01
-8.634430e-01
-1.086896e+00
-1.073914e+00
-1.275522e+00
-1.392099e+00
-1.349191e+00
-1.452664e+00
-1.628015e+00
-1.575101e+00
-1.745660e+00
-1.669180e+00
-1.762793e+00
-1.791733e+00
-1.759430e+00
-1.983392e+00
-1.665134e+00
-1.874191e+00
-1.812625e+00
-1.797119e+00
-1.831824e+00
-1.681396e+00
-1.763763e+00
-1.609048e+00
-1.668127e+00
-1.641541e+00
-1.454019e+00
-1.412796e+00
-1.444141e+00
-1.247836e+00
-1.275714e+00
-1.055948e+00
-1.006570e+00
-8.930054e-01
-7.193634e-01
-8.037750e-01
-3.472717e-01
-4.204803e-01
-2.255219e-01
-8.114624e-02
7.077026e-03
2.731628e-01
2.976105e-01
5.503265e-01
5.776459e-01
6.777527e-01
9.234314e-01
1.006281e+00
1.000827e+00
1.205579e+00
1.169092e+00
1.361285e+00
1.364548e+00
1.415341e+00
1.510159e+00
1.333267e+00
1.683322e+00
1.491629e+00
1.558139e+00
1.566321e+00
1.513559e+00
1.634613e+00
1.512106e+00
1.616656e+00
1.496530e+00
1.451547e+00
1.555237e+00
1.500397e+00
1.360458e+00
1.434430e+00
1.270667e+00
1.339526e+00
1.223917e+00
1.158560e+00
1.139532e+00
8.501068e-01
1.089557e+00
7.899597e-01
7.504364e-01
6.542969e-01
4.982666e-01
5.181641e-01
2.979065e-01
3.085846e-01
9.908752e-02
-3.095703e-02
-6.964111e-03
-1.350464e-01
-3.407501e-01
-3.239532e-01
-5.364899e-01
-5.073822e-01
-6.535461e-01
-7.394409e-01
-7.677612e-01
-1.055515e+00
-8.030609e-01
-1.078949e+00
-1.083542e+00
-1.132437e+00
-1.229010e+00
-1.137006e+00
-1.273553e+00
-1.167340e+00
-1.269113e+00
-1.279288e+00
-1.123212e+00
-1.108591e+00
-1.161594e+00
-9.833771e-01
-1.026492e+00
-8.211365e-01
-7.866913e-01
-6.896057e-01
-5.357574e-01
-6.438629e-01
-2.167542e-01
-3.257660e-01
-1.739014e-01
-8.050537e-02
-5.063477e-02
1.495880e-01
1.015869e-01
2.751709e-01
2.176575e-01
2.285614e-01
3.820343e-01
3.716370e-01
2.721741e-01
3.836731e-01
2.556061e-01
3.595428e-01
2.795441e-01
2.520630e-01
2.745392e-01
3.110352e-02
3.214050e-01
7.749939e-02
9.909668e-02
6.991577e-02
-1.341248e-02
8.429871e-02
-5.428162e-02
4.146729e-02
-8.007507e-02
-1.197296e-01
-3.781128e-03
-3.975525e-02
-1.539185e-01
-4.702454e-02
-1.711090e-01
-5.582886e-02
-1.190247e-01
-1.258087e-01
-7.995911e-02
-2.985748e-01
1.736145e-02
-2.012573e-01
-1.554779e-01
-1.621460e-01
-2.248322e-01
-1.080383e-01
-2.290375e-01
-1.170074e-01
-2.234497e-01
-2.487244e-01
-1.184753e-01
-1.396820e-01
-2.381470e-01
-1.144440e-01
-2.202850e-01
-8.512878e-02
-1.266205e-01
-1.098175e-01
-3.875122e-02
-2.307098e-01
1.128662e-01
-7.745972e-02
-3.167725e-03
1.840820e-02
-1.680298e-02
1.260468e-01
2.923889e-02
1.631470e-01
7.604980e-02
6.727600e-02
2.109711e-01
2.000854e-01
1.088348e-01
2.369446e-01
1.328644e-01
2.675049e-01
2.235962e-01
2.365570e-01
3.029388e-01
1.058502e-01
4.443573e-01
2.493805e-01
3.198730e-01
3.387665e-01
3.021271e-01
4.448730e-01
3.491058e-01
4.851379e-01
4.008057e-01
3.950836e-01
5.416016e-01
5.326660e-01
4.420166e-01
5.685608e-01
4.602539e-01
5.873901e-01
5.322235e-01
5.298889e-01
5.765015e-01
3.551270e-01
6.647766e-01
4.366241e-01
4.699890e-01
4.481018e-01
3.676117e-01
4.640015e-01
3.202087e-01
4.073242e-01
2.738281e-01
2.194183e-01
3.182526e-01
2.633636e-01
1.289490e-01
2.142212e-01
6.740112e-02
1.587677e-01
7.070618e-02
3.815308e-02
5.701904e-02
-1.898407e-01
9.624634e-02
-1.537140e-01
-1.408478e-01
-1.821106e-01
-2.809875e-01
-2.020538e-01
-3.622253e-01
-2.905457e-01
-4.381927e-01
-5.052338e-01
-4.170197e-01
-4.799957e-01
-6.197754e-01
-5.364990e-01
-6.816864e-01
-5.844696e-01
-6.621307e-01
-6.797211e-01
-6.410126e-01
-8.633484e-01
-5.479645e-01
-7.641602e-01
-7.134613e-01
-7.130646e-01
-7.670776e-01
-6.404022e-01
-7.506500e-01
-6.273346e-01
-7.220245e-01
-7.352783e-01
-5.926819e-01
-6.012054e-01
-6.865662e-01
-5.490204e-01
-6.401367e-01
-4.890289e-01
-5.132324e-01
-4.776337e-01
-3.859863e-01
-5.555695e-01
-1.876678e-01
-3.519531e-01
-2.500031e-01
-1.992859e-01
-2.041351e-01
-2.987061e-02
-9.473267e-02
7.140808e-02
1.641235e-02
3.935547e-02
2.141357e-01
2.332855e-01
1.709167e-01
3.264008e-01
2.481781e-01
4.069977e-01
3.854004e-01
4.188599e-01
5.036926e-01
3.231018e-01
6.759979e-01
4.931793e-01
5.736145e-01
5.999908e-01
5.684113e-01
7.135468e-01
6.174316e-01
7.503448e-01
6.599976e-01
6.454681e-01
7.802673e-01
7.568939e-01
6.492371e-01
7.564545e-01
6.268982e-01
7.311127e-01
6.518890e-01
6.247711e-01
6.464233e-01
4.004761e-01
6.863800e-01
4.358826e-01
4.486389e-01
4.083374e-01
3.119171e-01
3.950256e-01
2.408081e-01
3.202393e-01
1.818634e-01
1.251648e-01
2.241241e-01
1.715515e-01
4.121704e-02
1.321808e-01
-7.778931e-03
9.145508e-02
1.202087e-02
-1.140747e-02
1.709595e-02
-2.198059e-01
7.668762e-02
-1.624146e-01
-1.381256e-01
-1.671295e-01
-2.528778e-01
-1.596649e-01
-3.043396e-01
-2.157593e-01
-3.449707e-01
-3.921143e-01
-2.825256e-01
-3.229309e-01
-4.390350e-01
-3.312592e-01
-4.514679e-01
-3.291748e-01
-3.822571e-01
-3.760742e-01
-3.149109e-01
-5.164429e-01
-1.823059e-01
-3.822510e-01
-3.179596e-01
-3.069183e-01
-3.532318e-01
-2.218658e-01
-3.303925e-01
-2.081451e-01
-3.066345e-01
-3.261230e-01
-1.920044e-01
-2.109497e-01
-3.083496e-01
-1.843719e-01
-2.903564e-01
-1.553589e-01
-1.967224e-01
-1.792206e-01
-1.067719e-01
-2.967163e-01
4.942932e-02
-1.380310e-01
-6.077881e-02
-3.659668e-02
-6.995239e-02
7.352600e-02
-2.438049e-02
1.064240e-01
1.372375e-02
-3.286743e-03
1.292877e-01
1.043243e-01
-3.839111e-03
1.045013e-01
-2.176514e-02
8.850098e-02
1.847229e-02
3.985596e-03
4.193420e-02
-1.839508e-01
1.257599e-01
-9.749756e-02
-5.450745e-02
-6.209717e-02
-1.238739e-01
-4.779053e-03
-1.224304e-01
-6.582642e-03
-1.092926e-01
-1.315826e-01
1.922607e-04
-2.147827e-02
-1.229736e-01
-5.194092e-03
-1.201447e-01
2.642822e-03
-5.431824e-02
-5.584717e-02
-5.480957e-03
-2.200195e-01
9.980469e-02
-1.146057e-01
-6.390991e-02
-6.459961e-02
-1.200653e-01
5.239868e-03
-1.058624e-01
1.745605e-02
-7.630615e-02
-8.780212e-02
5.693359e-02
5.046082e-02
-3.345642e-02
1.042450e-01
1.132812e-02
1.578888e-01
1.257599e-01
1.495697e-01
2.251587e-01
3.507996e-02
3.779816e-01
1.844360e-01
2.532501e-01
2.674286e-01
2.233063e-01
3.563019e-01
2.490936e-01
3.726257e-01
2.754639e-01
2.573212e-01
3.926056e-01
3.743286e-01
2.767944e-01
3.993256e-01
2.901337e-01
4.196136e-01
3.699371e-01
3.759888e-01
4.334229e-01
2.247772e-01
5.483734e-01
3.346405e-01
3.821716e-01
3.734467e-01
3.045197e-01
4.102692e-01
2.732208e-01
3.641815e-01
2.315796e-01
1.752747e-01
2.696808e-01
2.082764e-01
6.576843e-02
1.421417e-01
-1.364136e-02
6.950378e-02
-2.527161e-02
-6.242676e-02
-4.534302e-02
-2.907410e-01
4.241943e-04
-2.406982e-01
-2.153046e-01
-2.404358e-01
-3.200012e-01
-2.189941e-01
-3.549469e-01
-2.575470e-01
-3.786255e-01
-4.189819e-01
-3.045685e-01
-3.424744e-01
-4.587402e-01
-3.538910e-01
-4.796936e-01
-3.654114e-01
-4.283783e-01
-4.334503e-01
-3.842194e-01
-5.977478e-01
-2.749939e-01
-4.850098e-01
-4.289673e-01
-4.238129e-01
-4.734528e-01
-3.427094e-01
-4.492462e-01
-3.226288e-01
-4.145874e-01
-4.258606e-01
-2.823273e-01
-2.912994e-01
-3.787842e-01
-2.453278e-01
-3.426636e-01
-2.000397e-01
-2.350128e-01
-2.123627e-01
-1.357330e-01
-3.220673e-01
2.772217e-02
-1.554626e-01
-7.261963e-02
-4.075012e-02
-6.364441e-02
9.382324e-02
1.393738e-02
1.672058e-01
1.016235e-01
1.162384e-01
2.847412e-01
2.994354e-01
2.340393e-01
3.873383e-01
3.070374e-01
4.630676e-01
4.372223e-01
4.642334e-01
5.396973e-01
3.462097e-01
6.821594e-01
4.780792e-01
5.328064e-01
5.291016e-01
4.634247e-01
5.709351e-01
4.343842e-01
5.248230e-01
3.908844e-01
3.327545e-01
4.249908e-01
3.611938e-01
2.160950e-01
2.897064e-01
1.311493e-01
2.115570e-01
1.141571e-01
7.449341e-02
8.924255e-02
-1.582031e-01
1.313293e-01
-1.108368e-01
-8.580933e-02
-1.104858e-01
-1.887238e-01
-8.538208e-02
-2.178436e-01
-1.157593e-01
-2.309113e-01
-2.643036e-01
-1.419861e-01
-1.711487e-01
-2.779327e-01
-1.630463e-01
-2.786469e-01
-1.543030e-01
-2.076416e-01
-2.036163e-01
-1.460144e-01
-3.521118e-01
-2.309570e-02
-2.281647e-01
-1.683838e-01
-1.606598e-01
-2.087372e-01
-7.741699e-02
-1.842896e-01
-5.868835e-02
-1.521484e-01
-1.651550e-01
-2.349243e-02
-3.446960e-02
-1.240784e-01
7.098389e-03
-9.266968e-02
4.725037e-02
9.036255e-03
2.754517e-02
9.878235e-02
-9.449768e-02
2.465759e-01
5.260925e-02
1.222534e-01
1.381592e-01
9.635925e-02
2.319946e-01
1.274841e-01
2.534698e-01
1.580017e-01
1.404205e-01
2.748016e-01
2.540863e-01
1.526062e-01
2.695526e-01
1.531921e-01
2.738983e-01
2.141327e-01
2.092041e-01
2.550690e-01
3.462219e-02
3.463196e-01
1.209259e-01
1.573517e-01
1.384033e-01
6.036987e-02
1.580994e-01
1.411133e-02
9.913025e-02
-3.835144e-02
-9.853821e-02
-7.153320e-03
-7.091370e-02
-2.154022e-01
-1.406525e-01
-2.977722e-01
-2.156281e-01
-3.111328e-01
-3.488617e-01
-3.320892e-01
-5.774689e-01
-2.856964e-01
-5.255646e-01
-4.982849e-01
-5.209076e-01
-5.973114e-01
-4.924133e-01
-6.239014e-01
-5.217102e-01
-6.380005e-01
-6.737823e-01
-5.552734e-01
-5.899048e-01
-7.041321e-01
-5.988190e-01
-7.257721e-01
-6.143250e-01
-6.816925e-01
-6.926697e-01
-6.504089e-01
-8.712402e-01
-5.553345e-01
-7.705719e-01
-7.171661e-01
-7.105927e-01
-7.534393e-01
-6.090912e-01
-6.935730e-01
-5.352417e-01
-5.842651e-01
-5.407562e-01
-3.298157e-01
-2.582642e-01
-2.520233e-01
-1.156311e-02
1.002502e-02
2.823853e-01
3.861267e-01
5.547333e-01
7.825409e-01
7.494537e-01
1.251776e+00
1.216882e+00
1.441205e+00
1.604752e+00
1.700705e+00
1.961520e+00
1.966434e+00
2.184497e+00
2.161768e+00
2.196625e+00
2.362057e+00
2.349741e+00
2.234283e+00
2.314771e+00
2.141122e+00
2.184872e+00
2.029758e+00
1.913107e+00
1.832425e+00
1.473868e+00
1.638339e+00
1.259271e+00
1.138004e+00
9.591003e-01
7.216400e-01
6.624237e-01
3.663147e-01
3.053253e-01
2.859802e-02
-1.632233e-01
-1.955261e-01
-3.739838e-01
-6.243561e-01
-6.472473e-01
-8.946991e-01
-8.965332e-01
-1.069492e+00
-1.178885e+00
-1.228760e+00
-1.537009e+00
-1.305380e+00
-1.602365e+00
-1.629370e+00
-1.703256e+00
-1.828250e+00
-1.769519e+00
-1.943872e+00
-1.880719e+00
-2.030954e+00
-2.094983e+00
-1.998520e+00
-2.048151e+00
-2.169907e+00
-2.063129e+00
-2.179129e+00
-2.046646e+00
-2.083035e+00
-2.053714e+00
-1.961197e+00
-2.122394e+00
-1.737338e+00
-1.875476e+00
-1.738849e+00
-1.643668e+00
-1.594229e+00
-1.354260e+00
-1.342169e+00
-1.088477e+00
-1.045074e+00
-9.139801e-01
-6.206207e-01
-4.738098e-01
-4.006042e-01
-1.031525e-01
-3.531494e-02
2.727325e-01
4.011292e-01
5.841614e-01
8.156036e-01
7.764557e-01
1.263892e+00
1.206619e+00
1.403528e+00
1.535556e+00
1.598364e+00
1.825519e+00
1.798468e+00
1.988995e+00
1.944855e+00
1.966675e+00
2.127884e+00
2.121655e+00
2.023813e+00
2.134512e+00
2.004141e+00
2.103278e+00
2.015271e+00
1.976303e+00
1.983411e+00
1.721094e+00
1.988165e+00
1.716107e+00
1.703534e+00
1.633359e+00
1.502194e+00
1.544836e+00
1.344147e+00
1.369751e+00
1.169312e+00
1.042062e+00
1.061948e+00
9.227173e-01
6.979675e-01
6.868347e-01
4.377777e-01
4.218811e-01
2.234009e-01
7.798462e-02
-1.740723e-02
-3.791321e-01
-2.072845e-01
-5.687988e-01
-6.637115e-01
-8.074646e-01
-1.003140e+00
-1.014468e+00
-1.257303e+00
-1.260123e+00
-1.472726e+00
-1.595514e+00
-1.553381e+00
-1.652795e+00
-1.819199e+00
-1.751520e+00
-1.901746e+00
-1.798395e+00
-1.859222e+00
-1.849054e+00
-1.770691e+00
-1.941730e+00
-1.562704e+00
-1.703778e+00
-1.566501e+00
-1.468222e+00
-1.413651e+00
-1.167917e+00
-1.150497e+00
-8.920166e-01
-8.461456e-01
-7.149994e-01
-4.259705e-01
-2.888519e-01
-2.314819e-01
4.252319e-02
7.971191e-02
3.486206e-01
4.294373e-01
5.556183e-01
7.209381e-01
6.075165e-01
1.013016e+00
8.677856e-01
9.705933e-01
1.003992e+00
9.650665e-01
1.089465e+00
9.612427e-01
1.052625e+00
9.134491e-01
8.451324e-01
9.232727e-01
8.430695e-01
6.806396e-01
7.372253e-01
5.626648e-01
6.284302e-01
5.182617e-01
4.681061e-01
4.747589e-01
2.212769e-01
5.060242e-01
2.595245e-01
2.800690e-01
2.499725e-01
1.646729e-01
2.582520e-01
1.123566e-01
1.967590e-01
5.920410e-02
-1.275635e-03
8.917542e-02
2.341309e-02
-1.244446e-01
-5.454102e-02
-2.180634e-01
-1.435791e-01
-2.476929e-01
-2.945923e-01
-2.870422e-01
-5.413422e-01
-2.576019e-01
-5.041229e-01
-4.815918e-01
-5.065002e-01
-5.825256e-01
-4.742615e-01
-5.992523e-01
-4.871948e-01
-5.900757e-01
-6.090698e-01
-4.704956e-01
-4.821014e-01
-5.704163e-01
-4.365692e-01
-5.328613e-01
-3.890747e-01
-4.231781e-01
-4.003326e-01
-3.244415e-01
-5.126251e-01
-1.658966e-01
-3.533325e-01
-2.758820e-01
-2.502502e-01
-2.799774e-01
-1.295685e-01
-2.163727e-01
-6.959229e-02
-1.406647e-01
-1.301697e-01
3.607178e-02
5.070190e-02
-1.235046e-02
1.461212e-01
7.398987e-02
2.414917e-01
2.304871e-01
2.756531e-01
3.726776e-01
2.040100e-01
5.680389e-01
3.950562e-01
4.836365e-01
5.162659e-01
4.889954e-01
6.366974e-01
5.416504e-01
6.744995e-01
5.833496e-01
5.678131e-01
7.019745e-01
6.788391e-01
5.727417e-01
6.831329e-01
5.586243e-01
6.698944e-01
5.997314e-01
5.835297e-01
6.176849e-01
3.854370e-01
6.858185e-01
4.501282e-01
4.775574e-01
4.513641e-01
3.680237e-01
4.629059e-01
3.189575e-01
4.071442e-01
2.760376e-01
2.251892e-01
3.288147e-01
2.800323e-01
1.530914e-01
2.473816e-01
1.109955e-01
2.142670e-01
1.395050e-01
1.216064e-01
1.563568e-01
-7.373047e-02
2.297028e-01
-2.847290e-03
2.712708e-02
2.163696e-03
-8.175049e-02
1.027222e-02
-1.393341e-01
-5.998535e-02
-2.033142e-01
-2.695618e-01
-1.842499e-01
-2.539642e-01
-4.041809e-01
-3.348938e-01
-4.971283e-01
-4.195404e-01
-5.188965e-01
-5.596252e-01
-5.449341e-01
-7.914307e-01
-4.997162e-01
-7.385223e-01
-7.089447e-01
-7.279388e-01
-7.993927e-01
-6.881378e-01
-8.117828e-01
-7.000702e-01
-8.049835e-01
-8.275208e-01
-6.937714e-01
-7.110931e-01
-8.056885e-01
-6.783417e-01
-7.810242e-01
-6.432037e-01
-6.824341e-01
-6.635925e-01
-5.903687e-01
-7.797668e-01
-4.328033e-01
-6.185120e-01
-5.378845e-01
-5.077393e-01
-5.317444e-01
-3.747009e-01
-4.541962e-01
-2.996826e-01
-3.627716e-01
-3.441284e-01
-1.697723e-01
-1.471985e-01
-2.026245e-01
-3.674622e-02
-1.015350e-01
7.341919e-02
7.011108e-02
1.233093e-01
2.290283e-01
6.996460e-02
4.448883e-01
2.842896e-01
3.868347e-01
4.352661e-01
4.256226e-01
5.929718e-01
5.194794e-01
6.756683e-01
6.095184e-01
6.202362e-01
7.816956e-01
7.863983e-01
7.083771e-01
8.466095e-01
7.491608e-01
8.862518e-01
8.400452e-01
8.457245e-01
8.992218e-01
6.835358e-01
9.973572e-01
7.716339e-01
8.056610e-01
7.825958e-01
6.992035e-01
7.908691e-01
6.406494e-01
7.198883e-01
5.774506e-01
5.135162e-01
6.026062e-01
5.382538e-01
3.950897e-01
4.729370e-01
3.204437e-01
4.082642e-01
3.190979e-01
2.879822e-01
3.109680e-01
7.074280e-02
3.657806e-01
1.267578e-01
1.520386e-01
1.241394e-01
3.883972e-02
1.309204e-01
-1.718445e-02
6.484985e-02
-7.477417e-02
-1.366760e-01
-4.657898e-02
-1.111420e-01
-2.560120e-01
-1.813324e-01
-3.384430e-01
-2.562012e-01
-3.514496e-01
-3.886627e-01
-3.710907e-01
-6.155243e-01
-3.226929e-01
-5.614227e-01
-5.328003e-01
-5.536926e-01
-6.280304e-01
-5.206604e-01
-6.492706e-01
-5.435608e-01
-6.553223e-01
-6.854584e-01
-5.598785e-01
-5.859375e-01
-6.897064e-01
-5.717346e-01
-6.837891e-01
-5.550018e-01
-6.028076e-01
-5.919037e-01
-5.258453e-01
-7.214905e-01
-3.795868e-01
-5.691132e-01
-4.909943e-01
-4.622498e-01
-4.866821e-01
-3.292053e-01
-4.076111e-01
-2.515472e-01
-3.132324e-01
-2.937714e-01
-1.197021e-01
-9.892883e-02
-1.580017e-01
1.693726e-03
-7.220764e-02
9.014893e-02
7.057800e-02
1.037567e-01
1.854858e-01
-1.391602e-03
3.418488e-01
1.461212e-01
2.105255e-01
2.183594e-01
1.664642e-01
2.904907e-01
1.736053e-01
2.870331e-01
1.797424e-01
1.518982e-01
2.781647e-01
2.519501e-01
1.476868e-01
2.650513e-01
1.524567e-01
2.804749e-01
2.314850e-01
2.403229e-01
3.028473e-01
1.015320e-01
4.347687e-01
2.329651e-01
2.945465e-01
3.020508e-01
2.512482e-01
3.769897e-01
2.616028e-01
3.757050e-01
2.676392e-01
2.368927e-01
3.577606e-01
3.234009e-01
2.083954e-01
3.125336e-01
1.844452e-01
2.949829e-01
2.268860e-01
2.156281e-01
2.575714e-01
3.577576e-02
3.489990e-01
1.279419e-01
1.713623e-01
1.619598e-01
9.579773e-02
2.076599e-01
7.971497e-02
1.822998e-01
6.347351e-02
2.266235e-02
1.339264e-01
9.021606e-02
-3.431396e-02
5.994568e-02
-7.835083e-02
2.182617e-02
-5.651245e-02
-7.790833e-02
-4.572754e-02
-2.766541e-01
2.863159e-02
-1.985443e-01
-1.591766e-01
-1.702057e-01
-2.355042e-01
-1.199799e-01
-2.412079e-01
-1.288879e-01
-2.350769e-01
-2.608856e-01
-1.326416e-01
-1.578217e-01
-2.626984e-01
-1.481995e-01
-2.663849e-01
-1.468994e-01
-2.073212e-01
-2.124573e-01
-1.658569e-01
-3.843292e-01
-6.866455e-02
-2.875580e-01
-2.416260e-01
-2.472290e-01
-3.075745e-01
-1.869537e-01
-3.024628e-01
-1.831451e-01
-2.802673e-01
-2.942596e-01
-1.508728e-01
-1.574615e-01
-2.402771e-01
-1.002441e-01
-1.896423e-01
-3.835754e-02
-6.474304e-02
-3.447571e-02
4.785156e-02
-1.355591e-01
2.136169e-01
2.562561e-02
9.891663e-02
1.159790e-01
7.293701e-02
2.049774e-01
9.480896e-02
2.134430e-01
1.094727e-01
8.294983e-02
2.085236e-01
1.798431e-01
7.177124e-02
1.842682e-01
6.622314e-02
1.885315e-01
1.340729e-01
1.382294e-01
1.972870e-01
-5.926514e-03
3.270782e-01
1.268219e-01
1.917175e-01
2.042786e-01
1.601166e-01
2.937408e-01
1.870819e-01
3.102478e-01
2.112427e-01
1.891510e-01
3.179352e-01
2.904388e-01
1.808807e-01
2.889221e-01
1.631439e-01
2.745819e-01
2.061401e-01
1.934448e-01
2.330841e-01
8.459473e-03
3.187714e-01
9.512329e-02
1.365356e-01
1.258423e-01
5.923157e-02
1.716003e-01
4.511719e-02
1.499847e-01
3.394165e-02
-3.942871e-03
1.099884e-01
6.830444e-02
-5.520630e-02
3.865051e-02
-1.018036e-01
-5.822754e-03
-9.046631e-02
-1.201904e-01
-9.812927e-02
-3.406647e-01
-4.807129e-02
-2.884216e-01
-2.619293e-01
-2.847015e-01
-3.598938e-01
-2.517120e-01
-3.771088e-01
-2.651489e-01
-3.674103e-01
-3.848053e-01
-2.436829e-01
-2.518860e-01
-3.360901e-01
-1.978882e-01
-2.901703e-01
-1.436005e-01
-1.770325e-01
-1.564789e-01
-8.679810e-02
-2.858368e-01
4.459839e-02
-1.651428e-01
-1.163452e-01
-1.259613e-01
-1.972046e-01
-9.422302e-02
-2.336426e-01
-1.438843e-01
-2.754700e-01
-3.276398e-01
-2.249878e-01
-2.734924e-01
-3.981812e-01
-2.988251e-01
-4.265503e-01
-3.103882e-01
-3.678741e-01
-3.643280e-01
-3.040710e-01
-5.048798e-01
-1.687164e-01
-3.657227e-01
-2.982391e-01
-2.843597e-01
-3.286835e-01
-1.967041e-01
-3.062592e-01
-1.870331e-01
-2.905731e-01
-3.168945e-01
-1.910217e-01
-2.186920e-01
-3.244904e-01
-2.072876e-01
-3.171997e-01
-1.819061e-01
-2.170013e-01
-1.858551e-01
-9.066467e-02
-2.478729e-01
1.419250e-01
9.753418e-03
1.542389e-01
2.579193e-01
3.152252e-01
5.595581e-01
5.709869e-01
8.179199e-01
8.462982e-01
9.523499e-01
1.207397e+00
1.300974e+00
1.304926e+00
1.516299e+00
1.481287e+00
1.668848e+00
1.659589e+00
1.688242e+00
1.750281e+00
1.529132e+00
1.824121e+00
1.566528e+00
1.556723e+00
1.478403e+00
1.330103e+00
1.348514e+00
1.117746e+00
1.110312e+00
8.754639e-01
7.149597e-01
7.041443e-01
5.374847e-01
2.902222e-01
2.622742e-01
3.311157e-03
-1.546631e-02
-2.101776e-01
-3.451782e-01
-4.238098e-01
-7.624908e-01
-5.618439e-01
-8.894257e-01
-9.458466e-01
-1.047391e+00
-1.197604e+00
-1.160916e+00
-1.353430e+00
-1.304181e+00
-1.464279e+00
-1.534744e+00
-1.441751e+00
-1.492087e+00
-1.612146e+00
-1.502737e+00
-1.616754e+00
-1.484790e+00
-1.525223e+00
-1.504211e+00
-1.426117e+00
-1.609061e+00
-1.255139e+00
-1.434375e+00
-1.348898e+00
-1.315411e+00
-1.337570e+00
-1.179617e+00
-1.258914e+00
-1.104855e+00
-1.167545e+00
-1.146512e+00
-9.656586e-01
-9.314453e-01
-9.694763e-01
-7.789490e-01
-8.112762e-01
-5.943329e-01
-5.460876e-01
-4.320831e-01
-2.566803e-01
-3.385468e-01
1.208252e-01
5.016479e-02
2.467773e-01
3.911682e-01
4.769836e-01
7.376465e-01
7.531647e-01
9.932861e-01
1.003918e+00
1.083145e+00
1.303674e+00
1.357358e+00
1.319333e+00
1.488342e+00
1.413608e+00
1.565384e+00
1.526776e+00
1.535049e+00
1.587180e+00
1.368179e+00
1.676904e+00
1.445132e+00
1.473077e+00
1.444427e+00
1.356818e+00
1.444873e+00
1.291254e+00
1.366226e+00
1.218045e+00
1.146393e+00
1.224719e+00
1.145825e+00
9.827271e-01
1.034573e+00
8.496155e-01
8.985443e-01
7.645905e-01
6.823944e-01
6.483582e-01
3.457825e-01
5.744598e-01
2.668579e-01
2.221710e-01
1.238464e-01
-3.151550e-02
-7.946777e-03
-2.215485e-01
-2.013489e-01
-3.987396e-01
-5.145111e-01
-4.743988e-01
-5.849487e-01
-7.720032e-01
-7.357697e-01
-9.284485e-01
-8.793671e-01
-1.005783e+00
-1.072217e+00
-1.081226e+00
-1.349771e+00
-1.078003e+00
-1.334448e+00
-1.319147e+00
-1.347147e+00
-1.421484e+00
-1.305444e+00
-1.416086e+00
-1.281827e+00
-1.353134e+00
-1.330383e+00
-1.138852e+00
-1.086664e+00
-1.100278e+00
-8.814026e-01
-8.830902e-01
-6.361511e-01
-5.608521e-01
-4.243164e-01
-2.335052e-01
-3.076935e-01
1.494812e-01
6.604004e-02
2.385742e-01
3.470551e-01
3.864716e-01
5.904480e-01
5.406281e-01
7.071442e-01
6.375305e-01
6.320160e-01
7.651947e-01
7.315308e-01
6.065491e-01
6.910736e-01
5.353363e-01
6.114471e-01
5.042603e-01
4.506744e-01
4.487305e-01
1.827423e-01
4.524963e-01
1.902130e-01
1.954956e-01
1.521667e-01
5.650940e-02
1.435089e-01
-4.379272e-03
8.318176e-02
-4.551697e-02
-9.161072e-02
1.852417e-02
-2.275391e-02
-1.417145e-01
-3.905334e-02
-1.667664e-01
-5.433960e-02
-1.195526e-01
-1.273376e-01
-8.137512e-02
-2.986420e-01
1.996155e-02
-1.947357e-01
-1.438477e-01
-1.443787e-01
-2.000854e-01
-7.568665e-02
-1.888458e-01
-6.912537e-02
-1.683685e-01
-1.873230e-01
-5.189514e-02
-6.938782e-02
-1.658386e-01
-4.197083e-02
-1.495911e-01
-1.802063e-02
-6.475220e-02
-5.455933e-02
8.804321e-03
-1.916138e-01
1.431885e-01
-5.577087e-02
1.055908e-02
2.511597e-02
-1.583252e-02
1.227325e-01
2.322693e-02
1.561462e-01
6.951294e-02
6.250000e-02
2.087708e-01
2.008698e-01
1.125488e-01
2.428955e-01
1.398865e-01
2.737732e-01
2.268341e-01
2.340393e-01
2.916656e-01
8.272705e-02
4.062439e-01
1.933502e-01
2.432129e-01
2.392700e-01
1.781403e-01
2.954712e-01
1.741882e-01
2.852722e-01
1.773895e-01
1.501648e-01
2.779358e-01
2.535858e-01
1.511749e-01
2.698639e-01
1.576172e-01
2.846649e-01
2.330078e-01
2.373230e-01
2.931854e-01
8.303528e-02
4.052582e-01
1.903473e-01
2.369720e-01
2.277771e-01
1.589325e-01
2.655853e-01
1.304810e-01
2.246368e-01
9.667969e-02
4.653320e-02
1.487488e-01
9.680786e-02
-3.456421e-02
5.452271e-02
-8.722229e-02
1.104736e-02
-6.791382e-02
-8.883362e-02
-5.552368e-02
-2.851166e-01
2.097168e-02
-2.066437e-01
-1.694611e-01
-1.849243e-01
-2.571045e-01
-1.512329e-01
-2.850372e-01
-1.881927e-01
-3.125488e-01
-3.585785e-01
-2.520294e-01
-2.996674e-01
-4.271759e-01
-3.347351e-01
-4.735382e-01
-3.723907e-01
-4.481140e-01
-4.652161e-01
-4.269531e-01
-6.500214e-01
-3.351410e-01
-5.510803e-01
-4.989929e-01
-4.958160e-01
-5.455780e-01
-4.132507e-01
-5.165833e-01
-3.854156e-01
-4.717316e-01
-4.766968e-01
-3.265137e-01
-3.287537e-01
-4.096680e-01
-2.700073e-01
-3.618195e-01
-2.145599e-01
-2.459320e-01
-2.207397e-01
-1.425964e-01
-3.284424e-01
2.082520e-02
-1.639008e-01
-8.347778e-02
-5.474243e-02
-8.128052e-02
7.216492e-02
-1.208801e-02
1.365723e-01
6.631165e-02
7.644653e-02
2.408325e-01
2.518463e-01
1.832550e-01
3.340332e-01
2.521515e-01
4.078033e-01
3.829895e-01
4.125336e-01
4.922760e-01
3.049866e-01
6.493713e-01
4.561920e-01
5.243866e-01
5.368286e-01
4.898712e-01
6.187103e-01
5.060181e-01
6.227020e-01
5.170715e-01
4.887085e-01
6.116669e-01
5.789215e-01
4.647034e-01
5.682678e-01
4.378601e-01
5.437408e-01
4.682861e-01
4.465271e-01
4.744476e-01
2.349792e-01
5.267365e-01
2.806732e-01
2.957306e-01
2.550415e-01
1.552277e-01
2.317291e-01
6.768494e-02
1.342072e-01
-1.965942e-02
-9.373779e-02
-1.312866e-02
-8.401794e-02
-2.316925e-01
-1.559296e-01
-3.079468e-01
-2.165680e-01
-2.988068e-01
-3.194611e-01
-2.821625e-01
-5.042603e-01
-1.870209e-01
-3.998810e-01
-3.445618e-01
-3.386658e-01
-3.868408e-01
-2.545593e-01
-3.600220e-01
-2.333099e-01
-3.267334e-01
-3.415222e-01
-2.039246e-01
-2.213867e-01
-3.199249e-01
-2.001495e-01
-3.136841e-01
-1.896759e-01
-2.453430e-01
-2.451080e-01
-1.922455e-01
-4.032593e-01
-7.872925e-02
-2.873505e-01
-2.297974e-01
-2.226807e-01
-2.694550e-01
-1.347534e-01
-2.361176e-01
-1.030396e-01
-1.873444e-01
-1.899048e-01
-3.690796e-02
-3.605957e-02
-1.138153e-01
2.863159e-02
-6.103516e-02
8.728638e-02
5.546570e-02
7.814026e-02
1.509674e-01
-4.341736e-02
2.936310e-01
9.288940e-02
1.532806e-01
1.576599e-01
1.024750e-01
2.230377e-01
1.022430e-01
2.111816e-01
9.840393e-02
6.380310e-02
1.817139e-01
1.454254e-01
2.944336e-02
1.333710e-01
5.761719e-03
1.171234e-01
5.001831e-02
3.953247e-02
8.184814e-02
-1.401367e-01
1.721832e-01
-5.043640e-02
-9.356689e-03
-2.160645e-02
-9.099121e-02
1.765747e-02
-1.130585e-01
-1.250916e-02
-1.320679e-01
-1.720276e-01
-5.781250e-02
-9.606934e-02
-2.123962e-01
-1.068970e-01
-2.309357e-01
-1.134247e-01
-1.714996e-01
-1.698700e-01
-1.121735e-01
-3.155396e-01
1.889954e-02
-1.781464e-01
-1.080933e-01
-8.836060e-02
-1.232880e-01
2.176514e-02
-7.129211e-02
6.763611e-02
-1.365051e-02
-1.629639e-02
1.333862e-01
1.278381e-01
4.096680e-02
1.721222e-01
6.951904e-02
2.038483e-01
1.576538e-01
1.663818e-01
2.266449e-01
2.175903e-02
3.510254e-01
1.456146e-01
2.048401e-01
2.119873e-01
1.635651e-01
2.948822e-01
1.883972e-01
3.147522e-01
2.220093e-01
2.093903e-01
3.506378e-01
3.381042e-01
2.454742e-01
3.714661e-01
2.639130e-01
3.927948e-01
3.400696e-01
3.404938e-01
3.897400e-01
1.705750e-01
4.816406e-01
2.538513e-01
2.862091e-01
2.617462e-01
1.770691e-01
2.676300e-01
1.165314e-01
1.949219e-01
5.157776e-02
-1.349182e-02
7.427368e-02
8.401489e-03
-1.365967e-01
-6.094666e-02
-2.160553e-01
-1.312073e-01
-2.236359e-01
-2.581970e-01
-2.386139e-01
-4.819336e-01
-1.893677e-01
-4.299072e-01
-4.047974e-01
-4.309448e-01
-5.120270e-01
-4.127228e-01
-5.501770e-01
-4.536499e-01
-5.743622e-01
-6.125824e-01
-4.936981e-01
-5.243286e-01
-6.301788e-01
-5.113281e-01
-6.194244e-01
-4.835693e-01
-5.212311e-01
-4.975220e-01
-4.162964e-01
-5.952057e-01
-2.356903e-01
-4.075592e-01
-3.126678e-01
-2.687042e-01
-2.804077e-01
-1.132690e-01
-1.856934e-01
-2.770691e-02
-9.156494e-02
-7.836304e-02
8.575134e-02
9.324951e-02
1.829834e-02
1.603577e-01
6.799927e-02
2.121552e-01
1.755066e-01
1.937378e-01
2.634552e-01
6.823425e-02
4.073669e-01
2.119659e-01
2.812622e-01
2.983246e-01
2.596100e-01
4.002258e-01
3.024719e-01
4.367737e-01
3.510315e-01
3.443787e-01
4.904877e-01
4.818298e-01
3.921600e-01
5.203949e-01
4.144897e-01
5.446930e-01
4.934021e-01
4.957367e-01
5.477753e-01
3.325195e-01
6.488373e-01
4.279388e-01
4.690857e-01
4.554138e-01
3.834534e-01
4.884125e-01
3.531616e-01
4.486176e-01
3.231873e-01
2.764618e-01
3.823761e-01
3.338806e-01
2.050079e-01
2.950958e-01
1.523895e-01
2.472351e-01
1.620697e-01
1.318268e-01
1.527924e-01
-9.201050e-02
1.964478e-01
-5.067444e-02
-3.436279e-02
-7.117310e-02
-1.644714e-01
-7.845154e-02
-2.299744e-01
-1.480225e-01
-2.836609e-01
-3.371094e-01
-2.336182e-01
-2.798767e-01
-4.015991e-01
-2.992401e-01
-4.247192e-01
-3.074371e-01
-3.651825e-01
-3.631744e-01
-3.057678e-01
-5.107361e-01
-1.797882e-01
-3.827454e-01
-3.212433e-01
-3.130280e-01
-3.624420e-01
-2.348358e-01
-3.481323e-01
-2.317932e-01
-3.376465e-01
-3.661713e-01
-2.431732e-01
-2.755798e-01
-3.888458e-01
-2.831055e-01
-4.094849e-01
-2.969482e-01
-3.626038e-01
-3.709015e-01
-3.251740e-01
-5.420441e-01
-2.223877e-01
-4.352417e-01
-3.817841e-01
-3.790833e-01
-4.309784e-01
-3.024750e-01
-4.114044e-01
-2.876282e-01
-3.832764e-01
-3.992523e-01
-2.617615e-01
-2.782990e-01
-3.752533e-01
-2.536316e-01
-3.652924e-01
-2.397888e-01
-2.946625e-01
-2.949738e-01
-2.445190e-01
-4.600708e-01
-1.425049e-01
-3.604156e-01
-3.146454e-01
-3.216339e-01
-3.844360e-01
-2.671844e-01
-3.863434e-01
-2.706451e-01
-3.706299e-01
-3.860352e-01
-2.417847e-01
-2.439056e-01
-3.176086e-01
-1.623260e-01
-2.294983e-01
-4.796143e-02
-3.493958e-02
4.471436e-02
1.874695e-01
7.530823e-02
5.065094e-01
4.107330e-01
5.857910e-01
7.134583e-01
7.877625e-01
1.042050e+00
1.056281e+00
1.299323e+00
1.317346e+00
1.407431e+00
1.641626e+00
1.710248e+00
1.686157e+00
1.866965e+00
1.799969e+00
1.954767e+00
1.912701e+00
1.909134e+00
1.939835e+00
1.688834e+00
1.955563e+00
1.671683e+00
1.637668e+00
1.537302e+00
1.369193e+00
1.369971e+00
1.124002e+00
1.103745e+00
8.586121e-01
6.901794e-01
6.737793e-01
5.040833e-01
2.562531e-01
2.302460e-01
-2.471924e-02
-3.767090e-02
-2.249390e-01
-3.512238e-01
-4.203156e-01
-7.493652e-01
-5.397003e-01
-8.595581e-01
-9.101471e-01
-1.008502e+00
-1.158755e+00
-1.125998e+00
-1.326865e+00
-1.290692e+00
-1.468829e+00
-1.562039e+00
-1.496338e+00
-1.578198e+00
-1.733539e+00
-1.662396e+00
-1.816583e+00
-1.725610e+00
-1.806854e+00
-1.825623e+00
-1.785104e+00
-2.002448e+00
-1.678622e+00
-1.882962e+00
-1.817285e+00
-1.797852e+00
-1.828424e+00
-1.673029e+00
-1.749362e+00
-1.587390e+00
-1.637943e+00
-1.601590e+00
-1.402924e+00
-1.349326e+00
-1.367157e+00
-1.156708e+00
-1.170239e+00
-9.363556e-01
-8.734619e-01
-7.471161e-01
-5.620514e-01
-6.367371e-01
-1.727478e-01
-2.409241e-01
-4.320984e-02
1.014557e-01
1.876617e-01
4.491638e-01
4.666626e-01
7.104889e-01
7.273193e-01
8.158875e-01
1.049048e+00
1.118771e+00
1.099890e+00
1.291452e+00
1.242484e+00
1.423053e+00
1.415775e+00
1.457007e+00
1.543573e+00
1.359866e+00
1.704666e+00
1.509290e+00
1.573288e+00
1.580170e+00
1.527173e+00
1.649213e+00
1.528934e+00
1.636609e+00
1.520413e+00
1.479971e+00
1.589005e+00
1.540436e+00
1.407599e+00
1.489429e+00
1.334079e+00
1.412012e+00
1.306232e+00
1.251495e+00
1.243820e+00
9.661865e-01
1.217780e+00
9.305420e-01
9.036407e-01
8.203186e-01
6.769440e-01
7.091095e-01
5.004181e-01
5.220337e-01
3.228424e-01
2.022644e-01
2.347351e-01
1.138397e-01
-8.576355e-02
-6.382751e-02
-2.721100e-01
-2.396027e-01
-3.833801e-01
-4.676239e-01
-4.949646e-01
-7.821655e-01
-5.295319e-01
-8.057617e-01
-8.111145e-01
-8.614624e-01
-9.600433e-01
-8.708282e-01
-1.011221e+00
-9.101837e-01
-1.019138e+00
-1.038638e+00
-8.945251e-01
-8.948029e-01
-9.661316e-01
-8.104126e-01
-8.803864e-01
-7.066437e-01
-7.084991e-01
-6.526093e-01
-5.451050e-01
-7.044983e-01
-3.334808e-01
-5.026062e-01
-4.144806e-01
-3.878265e-01
-4.269562e-01
-2.972473e-01
-4.159363e-01
-3.123169e-01
-4.378662e-01
-4.921570e-01
-4.000763e-01
-4.668488e-01
-6.169128e-01
-5.491608e-01
-7.136017e-01
-6.381439e-01
-7.382874e-01
-7.775757e-01
-7.581604e-01
-9.961700e-01
-6.920502e-01
-9.142181e-01
-8.636993e-01
-8.570038e-01
-8.982941e-01
-7.527649e-01
-8.385925e-01
-6.860321e-01
-7.470856e-01
-7.233032e-01
-5.411194e-01
-5.086975e-01
-5.527557e-01
-3.741882e-01
-4.253845e-01
-2.358307e-01
-2.237152e-01
-1.541779e-01
-3.108215e-02
-1.717163e-01
2.229584e-01
8.338013e-02
2.084229e-01
2.808044e-01
2.965302e-01
4.905884e-01
4.448181e-01
6.296661e-01
5.927917e-01
6.332336e-01
8.245178e-01
8.586945e-01
8.096252e-01
9.759888e-01
9.058289e-01
1.069165e+00
1.047977e+00
1.077411e+00
1.153339e+00
9.589142e-01
1.292822e+00
1.086029e+00
1.137808e+00
1.131216e+00
1.063007e+00
1.168408e+00
1.030347e+00
1.119901e+00
9.855713e-01
9.272217e-01
1.018982e+00
9.541351e-01
8.070190e-01
8.770935e-01
7.128632e-01
7.847870e-01
6.756836e-01
6.207611e-01
6.162750e-01
3.453583e-01
6.068909e-01
3.322662e-01
3.205566e-01
2.550385e-01
1.323090e-01
1.878326e-01
4.855347e-03
5.433960e-02
-1.148590e-01
-2.029419e-01
-1.353546e-01
-2.185394e-01
-3.781921e-01
-3.144348e-01
-4.789368e-01
-4.008545e-01
-4.974396e-01
-5.337067e-01
-5.132599e-01
-7.535004e-01
-4.554932e-01
-6.884430e-01
-6.537598e-01
-6.684448e-01
-7.366516e-01
-6.231293e-01
-7.455048e-01
-6.332886e-01
-7.381012e-01
-7.606781e-01
-6.266693e-01
-6.432770e-01
-7.363892e-01
-6.065674e-01
-7.056152e-01
-5.628235e-01
-5.959595e-01
-5.700317e-01
-4.890961e-01
-6.704529e-01
-3.154266e-01
-4.936310e-01
-4.065338e-01
-3.716583e-01
-3.931122e-01
-2.360535e-01
-3.184479e-01
-1.699280e-01
-2.425476e-01
-2.370117e-01
-7.931519e-02
-7.670593e-02
-1.550262e-01
-1.492920e-02
-1.079834e-01
3.645935e-02
9.826660e-04
2.088623e-02
9.237366e-02
-1.014496e-01
2.382172e-01
4.225464e-02
1.095459e-01
1.228363e-01
7.835388e-02
2.109406e-01
1.029480e-01
2.248322e-01
1.246490e-01
1.018250e-01
2.302277e-01
2.027496e-01
9.348145e-02
2.019318e-01
7.665710e-02
1.884155e-01
1.200806e-01
1.070709e-01
1.461182e-01
-7.934265e-02
2.300598e-01
5.776978e-03
4.706726e-02
3.746643e-02
-2.651062e-02
9.065857e-02
-2.825317e-02
8.744507e-02
-1.378784e-02
-3.274536e-02
1.045776e-01
9.077148e-02
-3.845215e-04
1.301666e-01
3.010864e-02
1.695831e-01
1.304687e-01
1.474762e-01
2.163544e-01
1.959839e-02
3.557312e-01
1.552429e-01
2.169464e-01
2.236847e-01
1.717499e-01
2.963562e-01
1.800842e-01
2.938629e-01
1.862671e-01
1.571564e-01
2.809631e-01
2.508362e-01
1.412170e-01
2.517975e-01
1.311646e-01
2.500824e-01
1.910980e-01
1.893311e-01
2.409302e-01
2.876282e-02
3.515564e-01
1.400055e-01
1.927429e-01
1.924133e-01
1.349579e-01
2.552948e-01
1.357819e-01
2.468903e-01
1.366760e-01
1.044403e-01
2.241913e-01
1.888824e-01
7.272034e-02
1.750793e-01
4.432068e-02
1.510132e-01
7.782288e-02
6.001892e-02
9.383850e-02
-1.376587e-01
1.643494e-01
-6.912537e-02
-3.917847e-02
-6.277161e-02
-1.435547e-01
-4.636230e-02
-1.885132e-01
-9.933472e-02
-2.302399e-01
-2.815186e-01
-1.787292e-01
-2.285675e-01
-3.566925e-01
-2.631317e-01
-3.991974e-01
-2.937164e-01
-3.636597e-01
-3.736267e-01
-3.269257e-01
-5.404388e-01
-2.149139e-01
-4.192871e-01
-3.547333e-01
-3.383423e-01
-3.743011e-01
-2.276947e-01
-3.164948e-01
-1.706268e-01
-2.424408e-01
-2.334015e-01
-7.008667e-02
-6.049805e-02
-1.312012e-01
1.644287e-02
-7.001038e-02
7.944031e-02
4.666748e-02
6.657715e-02
1.351044e-01
-6.479797e-02
2.657654e-01
5.777588e-02
1.105469e-01
1.074615e-01
4.545593e-02
1.602325e-01
3.486633e-02
1.406525e-01
2.652588e-02
-7.351685e-03
1.136505e-01
8.278198e-02
-2.557983e-02
8.811951e-02
-2.770081e-02
9.748840e-02
4.596558e-02
5.247803e-02
1.127533e-01
-9.075317e-02
2.403229e-01
3.638916e-02
9.577637e-02
1.008209e-01
4.728394e-02
1.699310e-01
5.112610e-02
1.613831e-01
4.885559e-02
1.301880e-02
1.280640e-01
8.727722e-02
-3.481140e-02
6.156616e-02
-7.484436e-02
2.684021e-02
-5.034180e-02
-7.081604e-02
-3.790283e-02
-2.682770e-01
3.708496e-02
-1.906830e-01
-1.526031e-01
-1.654480e-01
-2.328766e-01
-1.197266e-01
-2.435150e-01
-1.338043e-01
-2.421082e-01
-2.690094e-01
-1.402618e-01
-1.629791e-01
-2.632111e-01
-1.413300e-01
-2.490662e-01
-1.155304e-01
-1.582031e-01
-1.420410e-01
-7.077026e-02
-2.616028e-01
8.445435e-02
-1.018585e-01
-2.185974e-02
7.110596e-03
-1.915588e-02
1.342407e-01
4.936829e-02
1.965363e-01
1.235229e-01
1.292511e-01
2.873932e-01
2.903748e-01
2.121613e-01
3.518280e-01
2.574646e-01
3.994202e-01
3.600189e-01
3.745880e-01
4.394379e-01
2.377136e-01
5.683624e-01
3.623779e-01
4.190063e-01
4.214874e-01
3.663513e-01
4.888641e-01
3.715637e-01
4.852112e-01
3.781250e-01
3.497833e-01
4.741730e-01
4.439209e-01
3.329315e-01
4.402191e-01
3.138763e-01
4.241852e-01
3.533356e-01
3.361877e-01
3.684967e-01
1.331573e-01
4.288879e-01
1.867035e-01
2.055664e-01
1.683685e-01
7.170715e-02
1.509796e-01
-1.065674e-02
5.788574e-02
-9.469910e-02
-1.684052e-01
-8.868408e-02
-1.618622e-01
-3.133636e-01
-2.432831e-01
-4.030182e-01
-3.217407e-01
-4.165192e-01
-4.521210e-01
-4.320587e-01
-6.734833e-01
-3.775482e-01
-6.133209e-01
-5.820984e-01
-6.007874e-01
-6.733887e-01
-5.647766e-01
-6.924957e-01
-5.860779e-01
-6.970398e-01
-7.260376e-01
-5.987915e-01
-6.224457e-01
-7.229340e-01
-6.006927e-01
-7.074249e-01
-5.723694e-01
-6.131989e-01
-5.949677e-01
-5.215637e-01
-7.101715e-01
-3.619598e-01
-5.464111e-01
-4.650330e-01
-4.351563e-01
-4.608093e-01
-3.069641e-01
-3.914398e-01
-2.439240e-01
-3.162720e-01
-3.091766e-01
-1.484222e-01
-1.411591e-01
-2.132538e-01
-6.514587e-02
-1.484772e-01
7.604980e-03
-1.427002e-02
2.124634e-02
1.105408e-01
-6.343079e-02
2.982422e-01
1.263611e-01
2.198486e-01
2.615265e-01
2.473663e-01
4.121124e-01
3.378143e-01
4.948456e-01
4.310638e-01
4.455322e-01
6.117859e-01
6.221680e-01
5.505371e-01
6.959564e-01
6.065796e-01
7.526733e-01
7.165192e-01
7.332733e-01
7.991638e-01
5.973846e-01
9.269073e-01
7.188110e-01
7.722443e-01
7.704224e-01
7.099518e-01
8.262421e-01
7.021088e-01
8.083954e-01
6.935364e-01
6.570709e-01
7.731812e-01
7.348572e-01
6.161987e-01
7.164215e-01
5.835907e-01
6.880737e-01
6.122437e-01
5.910950e-01
6.204834e-01
3.830780e-01
6.774811e-01
4.345520e-01
4.532288e-01
4.163116e-01
3.200348e-01
3.995148e-01
2.375305e-01
3.050842e-01
1.506836e-01
7.406616e-02
1.495697e-01
7.052307e-02
-8.848877e-02
-2.770386e-02
-1.984741e-01
-1.299774e-01
-2.394196e-01
-2.914459e-01
-2.896576e-01
-5.509583e-01
-2.764160e-01
-5.350708e-01
-5.281219e-01
-5.726624e-01
-6.724731e-01
-5.923920e-01
-7.499023e-01
-6.745697e-01
-8.181671e-01
-8.812500e-01
-7.895752e-01
-8.501007e-01
-9.887878e-01
-9.062195e-01
-1.053976e+00
-9.612335e-01
-1.045242e+00
-1.070898e+00
-1.041901e+00
-1.275171e+00
-9.716461e-01
-1.200232e+00
-1.162155e+00
-1.174344e+00
-1.240460e+00
-1.125223e+00
-1.245978e+00
-1.132281e+00
-1.235562e+00
-1.256195e+00
-1.119788e+00
-1.133170e+00
-1.222269e+00
-1.087061e+00
-1.178864e+00
-1.026447e+00
-1.046802e+00
-1.004593e+00
-9.026886e-01
-1.057700e+00
-6.699493e-01
-8.080200e-01
-6.727997e-01
-5.805664e-01
-5.351257e-01
-3.009491e-01
-2.956848e-01
-4.896851e-02
-1.257629e-02
1.118073e-01
3.975983e-01
5.362061e-01
6.006104e-01
8.889069e-01
9.471680e-01
1.244150e+00
1.359671e+00
1.527182e+00
1.740735e+00
1.680951e+00
2.144568e+00
2.059766e+00
2.224252e+00
2.319180e+00
2.339764e+00
2.519995e+00
2.441068e+00
2.573895e+00
2.466324e+00
2.418848e+00
2.506012e+00
2.421323e+00
2.240604e+00
2.264084e+00
2.042526e+00
2.047928e+00
1.864618e+00
1.729727e+00
1.640573e+00
1.282452e+00
1.455426e+00
1.092245e+00
9.930145e-01
8.412170e-01
6.342163e-01
6.074890e-01
3.448853e-01
3.172760e-01
7.292175e-02
-8.876953e-02
-9.395447e-02
-2.487427e-01
-4.791290e-01
-4.857361e-01
-7.207123e-01
-7.137970e-01
-8.815369e-01
-9.887970e-01
-1.039011e+00
-1.349518e+00
-1.121591e+00
-1.423514e+00
-1.456351e+00
-1.536453e+00
-1.667627e+00
-1.614655e+00
-1.794565e+00
-1.736932e+00
-1.892590e+00
-1.961981e+00
-1.870563e+00
-1.925327e+00
-2.052628e+00
-1.952060e+00
-2.075156e+00
-1.950323e+00
-1.995105e+00
-1.974918e+00
-1.892636e+00
-2.065305e+00
-1.692725e+00
-1.844238e+00
-1.721552e+00
-1.641406e+00
-1.608197e+00
-1.385892e+00
-1.392810e+00
-1.159116e+00
-1.137360e+00
-1.029599e+00
-7.619934e-01
-6.433167e-01
-6.003418e-01
-3.355164e-01
-3.023895e-01
-3.171692e-02
5.704346e-02
1.985413e-01
3.871155e-01
3.046692e-01
7.485657e-01
6.484222e-01
8.035583e-01
8.961609e-01
9.229187e-01
1.118182e+00
1.064319e+00
1.233084e+00
1.173236e+00
1.185709e+00
1.344540e+00
1.343088e+00
1.256348e+00
1.384467e+00
1.277075e+00
1.404758e+00
1.350296e+00
1.348672e+00
1.396182e+00
1.176172e+00
1.487228e+00
1.260220e+00
1.293149e+00
1.268427e+00
1.182037e+00
1.268866e+00
1.111664e+00
1.180411e+00
1.022955e+00
9.385712e-01
1.001547e+00
9.056580e-01
7.251953e-01
7.597351e-01
5.578094e-01
5.904968e-01
4.415375e-01
3.468140e-01
3.032928e-01
-5.688477e-03
2.192841e-01
-8.981628e-02
-1.332428e-01
-2.268494e-01
-3.740112e-01
-3.389313e-01
-5.383240e-01
-5.006927e-01
-6.762177e-01
-7.649841e-01
-6.919373e-01
-7.636475e-01
-9.052124e-01
-8.158234e-01
-9.468079e-01
-8.267120e-01
-8.730988e-01
-8.506897e-01
-7.629547e-01
-9.273621e-01
-5.451447e-01
-6.866638e-01
-5.541321e-01
-4.660950e-01
-4.278961e-01
-2.058502e-01
-2.197937e-01
-1.193237e-03
-4.470825e-03
6.781006e-02
2.877869e-01
3.462463e-01
3.155670e-01
4.929565e-01
4.257874e-01
5.836975e-01
5.488464e-01
5.563202e-01
6.021515e-01
3.702179e-01
6.601959e-01
4.046692e-01
4.041595e-01
3.432892e-01
2.203186e-01
2.721252e-01
8.351135e-02
1.269928e-01
-4.721985e-02
-1.382324e-01
-7.085266e-02
-1.510071e-01
-3.039062e-01
-2.294708e-01
-3.794830e-01
-2.836273e-01
-3.598602e-01
-3.737366e-01
-3.296509e-01
-5.457397e-01
-2.240814e-01
-4.348694e-01
-3.801697e-01
-3.778595e-01
-4.324768e-01
-3.093933e-01
-4.265808e-01
-3.136658e-01
-4.225067e-01
-4.535400e-01
-3.324005e-01
-3.658813e-01
-4.794861e-01
-3.734314e-01
-4.988617e-01
-3.847229e-01
-4.480865e-01
-4.535645e-01
-4.046448e-01
-6.180847e-01
-2.948669e-01
-5.040436e-01
-4.469208e-01
-4.405182e-01
-4.886749e-01
-3.562805e-01
-4.609497e-01
-3.323853e-01
-4.222198e-01
-4.311188e-01
-2.848083e-01
-2.903717e-01
-3.737793e-01
-2.353882e-01
-3.269379e-01
-1.775269e-01
-2.045929e-01
-1.729675e-01
-8.634644e-02
-2.619629e-01
9.907837e-02
-7.257080e-02
2.185059e-02
6.502686e-02
5.275574e-02
2.197815e-01
1.480682e-01
3.079773e-01
2.473999e-01
2.653992e-01
4.356201e-01
4.504730e-01
3.839752e-01
5.354126e-01
4.530396e-01
6.073059e-01
5.805298e-01
6.080078e-01
6.861145e-01
4.980133e-01
8.426727e-01
6.509430e-01
7.218658e-01
7.384766e-01
6.970947e-01
8.328339e-01
7.280121e-01
8.531403e-01
7.562256e-01
7.364868e-01
8.677399e-01
8.425323e-01
7.347412e-01
8.432434e-01
7.160889e-01
8.235413e-01
7.479553e-01
7.244507e-01
7.489044e-01
5.043701e-01
7.896637e-01
5.360291e-01
5.427490e-01
4.929077e-01
3.832397e-01
4.491394e-01
2.738495e-01
3.285736e-01
1.620728e-01
7.434387e-02
1.398163e-01
5.209656e-02
-1.143097e-01
-5.953369e-02
-2.349945e-01
-1.699097e-01
-2.813568e-01
-3.341492e-01
-3.317657e-01
-5.912476e-01
-3.136108e-01
-5.677277e-01
-5.548248e-01
-5.917114e-01
-6.822083e-01
-5.909637e-01
-7.352722e-01
-6.445923e-01
-7.704163e-01
-8.133484e-01
-6.990265e-01
-7.344482e-01
-8.456238e-01
-7.331207e-01
-8.488007e-01
-7.220032e-01
-7.704041e-01
-7.592010e-01
-6.924194e-01
-8.874756e-01
-5.456543e-01
-7.364441e-01
-6.614014e-01
-6.378418e-01
-6.698944e-01
-5.225006e-01
-6.134369e-01
-4.722809e-01
-5.507202e-01
-5.493835e-01
-3.939514e-01
-3.915161e-01
-4.677979e-01
-3.231018e-01
-4.089508e-01
-2.544128e-01
-2.769196e-01
-2.411163e-01
-1.506104e-01
-3.223969e-01
4.244385e-02
-1.254700e-01
-2.731323e-02
1.957703e-02
1.115417e-02
1.821320e-01
1.143707e-01
2.780975e-01
2.209869e-01
2.420349e-01
4.147308e-01
4.313080e-01
3.655182e-01
5.162598e-01
4.316193e-01
5.818176e-01
5.490936e-01
5.685638e-01
6.363556e-01
4.356445e-01
7.653412e-01
5.565491e-01
6.084900e-01
6.043793e-01
5.409058e-01
6.534637e-01
5.249756e-01
6.264282e-01
5.064026e-01
4.646667e-01
5.754486e-01
5.318817e-01
4.082214e-01
5.039307e-01
3.673309e-01
4.688995e-01
3.911316e-01
3.690735e-01
3.988281e-01
1.632324e-01
4.610046e-01
2.230347e-01
2.481689e-01
2.193787e-01
1.329102e-01
2.239746e-01
7.532043e-02
1.577484e-01
1.984253e-02
-3.874207e-02
5.639954e-02
-1.461792e-03
-1.379242e-01
-5.320740e-02
-1.988068e-01
-1.038635e-01
-1.856384e-01
-2.088959e-01
-1.772522e-01
-4.077515e-01
-1.014709e-01
-3.275421e-01
-2.872162e-01
-2.975891e-01
-3.625946e-01
-2.471436e-01
-3.688446e-01
-2.572693e-01
-3.641846e-01
-3.902863e-01
-2.614288e-01
-2.847382e-01
-3.861908e-01
-2.663239e-01
-3.768738e-01
-2.471191e-01
-2.945129e-01
-2.839630e-01
-2.192139e-01
-4.173859e-01
-7.953186e-02
-2.748077e-01
-2.044464e-01
-1.855743e-01
-2.221741e-01
-7.919922e-02
-1.743347e-01
-3.713379e-02
-1.194855e-01
-1.222412e-01
2.854309e-02
2.549744e-02
-5.740051e-02
7.909546e-02
-1.690979e-02
1.250397e-01
8.722534e-02
1.047607e-01
1.737396e-01
-2.293091e-02
3.135437e-01
1.139160e-01
1.771088e-01
1.860077e-01
1.368927e-01
2.648499e-01
1.522980e-01
2.699188e-01
1.659241e-01
1.398285e-01
2.657196e-01
2.364441e-01
1.261719e-01
2.342285e-01
1.090302e-01
2.211609e-01
1.531860e-01
1.403168e-01
1.787292e-01
-4.846802e-02
2.576385e-01
2.813416e-02
6.202698e-02
4.231567e-02
-3.456726e-02
6.657104e-02
-7.147827e-02
2.203979e-02
-1.044647e-01
-1.513855e-01
-4.455261e-02
-9.080200e-02
-2.159637e-01
-1.204742e-01
-2.559204e-01
-1.516602e-01
-2.249786e-01
-2.407501e-01
-2.025696e-01
-4.274200e-01
-1.163208e-01
-3.381714e-01
-2.940887e-01
-3.008514e-01
-3.621521e-01
-2.426605e-01
-3.596893e-01
-2.426117e-01
-3.428467e-01
-3.609680e-01
-2.226868e-01
-2.351135e-01
-3.242340e-01
-1.905396e-01
-2.859680e-01
-1.399292e-01
-1.702301e-01
-1.420288e-01
-5.929871e-02
-2.395233e-01
1.159698e-01
-6.243591e-02
2.380981e-02
5.733948e-02
3.399353e-02
1.887085e-01
1.035492e-01
2.489777e-01
1.730713e-01
1.751038e-01
3.291077e-01
3.277313e-01
2.451599e-01
3.806946e-01
2.826599e-01
4.216187e-01
3.799194e-01
3.928101e-01
4.563812e-01
2.536530e-01
5.833801e-01
3.763214e-01
4.314423e-01
4.315430e-01
3.729462e-01
4.906799e-01
3.672455e-01
4.733917e-01
3.573639e-01
3.188080e-01
4.318359e-01
3.895630e-01
2.663177e-01
3.616058e-01
2.239624e-01
3.240540e-01
2.446594e-01
2.210632e-01
2.495300e-01
1.310425e-02
3.105804e-01
7.298279e-02
9.913635e-02
7.188721e-02
-1.262207e-02
8.055725e-02
-6.601868e-02
1.810608e-02
-1.188141e-01
-1.773590e-01
-8.342285e-02
-1.438721e-01
-2.845215e-01
-2.056366e-01
-3.586212e-01
-2.724670e-01
-3.641083e-01
-3.980591e-01
-3.774689e-01
-6.189148e-01
-3.229095e-01
-5.579987e-01
-5.250061e-01
-5.404633e-01
-6.079803e-01
-4.920929e-01
-6.102112e-01
-4.918762e-01
-5.888062e-01
-6.019928e-01
-4.575165e-01
-4.629974e-01
-5.448883e-01
-4.042267e-01
-4.934174e-01
-3.422668e-01
-3.689178e-01
-3.387115e-01
-2.558136e-01
-4.376526e-01
-8.547058e-02
-2.686127e-01
-1.881775e-01
-1.611542e-01
-1.911438e-01
-4.275818e-02
-1.333466e-01
8.047485e-03
-7.002869e-02
-6.783142e-02
8.894043e-02
9.322510e-02
1.921692e-02
1.662781e-01
8.264771e-02
2.386749e-01
2.164734e-01
2.508179e-01
3.374878e-01
1.590210e-01
5.138092e-01
3.322449e-01
4.128204e-01
4.381104e-01
4.040924e-01
5.456940e-01
4.453308e-01
5.736603e-01
4.790192e-01
4.609772e-01
5.938293e-01
5.707489e-01
4.662201e-01
5.798462e-01
4.601532e-01
5.778473e-01
5.155518e-01
5.085846e-01
5.530365e-01
3.317841e-01
6.433868e-01
4.185028e-01
4.558411e-01
4.379883e-01
3.609772e-01
4.595795e-01
3.161285e-01
4.011932e-01
2.630280e-01
2.012756e-01
2.902130e-01
2.231537e-01
7.467957e-02
1.447845e-01
-1.754761e-02
5.897522e-02
-4.230957e-02
-8.560181e-02
-7.400208e-02
-3.240051e-01
-3.623962e-02
-2.793243e-01
-2.542267e-01
-2.779327e-01
-3.544189e-01
-2.487854e-01
-3.788513e-01
-2.745483e-01
-3.882233e-01
-4.212128e-01
-3.001007e-01
-3.326477e-01
-4.454102e-01
-3.395844e-01
-4.673584e-01
-3.584717e-01
-4.305664e-01
-4.485596e-01
-4.160828e-01
-6.498505e-01
-3.505402e-01
-5.866699e-01
-5.587646e-01
-5.830780e-01
-6.625916e-01
-5.613800e-01
-6.962372e-01
-5.960785e-01
-7.119690e-01
-7.441071e-01
-6.180450e-01
-6.408813e-01
-7.387726e-01
-6.124176e-01
-7.139191e-01
-5.730042e-01
-6.078461e-01
-5.841278e-01
-5.061890e-01
-6.916534e-01
-3.420319e-01
-5.269318e-01
-4.479767e-01
-4.223541e-01
-4.537750e-01
-3.067963e-01
-3.985107e-01
-2.579529e-01
-3.361542e-01
-3.329193e-01
-1.732117e-01
-1.631500e-01
-2.278076e-01
-6.681824e-02
-1.312836e-01
5.002136e-02
6.011353e-02
1.344025e-01
2.693848e-01
1.474701e-01
5.670624e-01
4.582275e-01
6.190918e-01
7.317444e-01
7.906525e-01
1.029437e+00
1.028610e+00
1.257419e+00
1.262561e+00
1.341455e+00
1.566476e+00
1.628342e+00
1.600113e+00
1.779764e+00
1.714508e+00
1.873911e+00
1.839191e+00
1.845441e+00
1.888205e+00
1.650906e+00
1.932498e+00
1.663962e+00
1.645175e+00
1.559302e+00
1.404327e+00
1.416318e+00
1.179071e+00
1.164694e+00
9.222626e-01
7.533417e-01
7.332672e-01
5.567841e-01
2.993317e-01
2.612213e-01
-7.662964e-03
-3.576660e-02
-2.387909e-01
-3.808472e-01
-4.650543e-01
-8.078491e-01
-6.099396e-01
-9.390747e-01
-9.961975e-01
-1.097983e+00
-1.248480e+00
-1.212640e+00
-1.407159e+00
-1.361627e+00
-1.527600e+00
-1.606342e+00
-1.524170e+00
-1.587949e+00
-1.723999e+00
-1.632785e+00
-1.766663e+00
-1.655487e+00
-1.716940e+00
-1.716443e+00
-1.657474e+00
-1.857364e+00
-1.517303e+00
-1.706686e+00
-1.627206e+00
-1.595227e+00
-1.614429e+00
-1.449014e+00
-1.516699e+00
-1.347345e+00
-1.391791e+00
-1.350470e+00
-1.148132e+00
-1.092194e+00
-1.109052e+00
-8.988556e-01
-9.137329e-01
-6.822052e-01
-6.226135e-01
-5.005310e-01
-3.204071e-01
-4.005524e-01
5.779419e-02
-1.600342e-02
1.761658e-01
3.155426e-01
3.967407e-01
6.537720e-01
6.673920e-01
9.078796e-01
9.217041e-01
1.007297e+00
1.237363e+00
1.303622e+00
1.280725e+00
1.467130e+00
1.411444e+00
1.583331e+00
1.565125e+00
1.593146e+00
1.663806e+00
1.461417e+00
1.784537e+00
1.564590e+00
1.601508e+00
1.578952e+00
1.494598e+00
1.583542e+00
1.428873e+00
1.501416e+00
1.349878e+00
1.274423e+00
1.349072e+00
1.267084e+00
1.101996e+00
1.153046e+00
9.685913e-01
1.019141e+00
8.876556e-01
8.086212e-01
7.779449e-01
4.785034e-01
7.093933e-01
4.024780e-01
3.565796e-01
2.548004e-01
9.357605e-02
1.086670e-01
-1.160187e-01
-1.092865e-01
-3.220520e-01
-4.545105e-01
-4.317657e-01
-5.596375e-01
-7.632538e-01
-7.419983e-01
-9.473572e-01
-9.080261e-01
-1.040756e+00
-1.109824e+00
-1.117728e+00
-1.381519e+00
-1.101636e+00
-1.347025e+00
-1.318417e+00
-1.331757e+00
-1.390881e+00
-1.260010e+00
-1.356964e+00
-1.211017e+00
-1.273438e+00
-1.245065e+00
-1.051584e+00
-1.001099e+00
-1.020062e+00
-8.098877e-01
-8.231537e-01
-5.900391e-01
-5.298706e-01
-4.089935e-01
-2.333160e-01
-3.213806e-01
1.240509e-01
3.175354e-02
1.988129e-01
3.057892e-01
3.475922e-01
5.578979e-01
5.180145e-01
6.976654e-01
6.439575e-01
6.562134e-01
8.083252e-01
7.937225e-01
6.872253e-01
7.888855e-01
6.482452e-01
7.369354e-01
6.392090e-01
5.919006e-01
5.928436e-01
3.265900e-01
5.931824e-01
3.250610e-01
3.224121e-01
2.693390e-01
1.628296e-01
2.382996e-01
7.856445e-02
1.543579e-01
1.398010e-02
-4.340515e-02
5.571289e-02
3.625488e-03
-1.261993e-01
-3.488159e-02
-1.746277e-01
-7.535706e-02
-1.549774e-01
-1.787415e-01
-1.505157e-01
-3.872864e-01
-8.991394e-02
-3.270874e-01
-2.996063e-01
-3.239410e-01
-4.033020e-01
-3.018005e-01
-4.361816e-01
-3.353699e-01
-4.505066e-01
-4.819000e-01
-3.551208e-01
-3.771179e-01
-4.739349e-01
-3.463074e-01
-4.464691e-01
-3.042816e-01
-3.379150e-01
-3.130157e-01
-2.340424e-01
-4.188660e-01
-6.928406e-02
-2.551453e-01
-1.781677e-01
-1.557312e-01
-1.918671e-01
-5.144653e-02
-1.519897e-01
-2.269897e-02
-1.147888e-01
-1.283203e-01
1.151733e-02
-1.818848e-03
-9.360352e-02
3.633728e-02
-6.315002e-02
7.915039e-02
4.598083e-02
7.268372e-02
1.556000e-01
-2.251892e-02
3.370209e-01
1.645294e-01
2.583679e-01
3.007812e-01
2.871643e-01
4.518860e-01
3.764832e-01
5.309235e-01
4.626617e-01
4.704681e-01
6.278748e-01
6.272766e-01
5.427399e-01
6.733856e-01
5.676025e-01
6.959839e-01
6.412445e-01
6.390747e-01
6.859314e-01
4.653076e-01
7.762970e-01
5.502258e-01
5.864838e-01
5.682220e-01
4.920410e-01
5.930206e-01
4.537659e-01
5.449097e-01
4.146088e-01
3.622589e-01
4.616547e-01
4.055908e-01
2.679199e-01
3.478668e-01
1.936768e-01
2.758636e-01
1.771027e-01
1.325562e-01
1.386078e-01
-1.214996e-01
1.515228e-01
-1.107666e-01
-1.090851e-01
-1.599945e-01
-2.667725e-01
-1.937225e-01
-3.576263e-01
-2.875122e-01
-4.347504e-01
-4.997375e-01
-4.081787e-01
-4.669342e-01
-6.019806e-01
-5.139801e-01
-6.549164e-01
-5.544098e-01
-6.301270e-01
-6.472748e-01
-6.097717e-01
-8.349548e-01
-5.240479e-01
-7.461761e-01
-7.025299e-01
-7.098541e-01
-7.717804e-01
-6.527588e-01
-7.699310e-01
-6.523773e-01
-7.511688e-01
-7.665436e-01
-6.238434e-01
-6.299500e-01
-7.106262e-01
-5.662170e-01
-6.485474e-01
-4.870239e-01
-4.996490e-01
-4.518524e-01
-3.479919e-01
-5.058746e-01
-1.272766e-01
-2.823578e-01
-1.731262e-01
-1.175232e-01
-1.200867e-01
5.373840e-02
-1.424866e-02
1.461823e-01
8.296814e-02
9.549866e-02
2.579803e-01
2.634064e-01
1.863190e-01
3.264801e-01
2.327301e-01
3.761414e-01
3.396454e-01
3.589630e-01
4.306580e-01
2.380280e-01
5.800079e-01
3.874237e-01
4.591888e-01
4.779999e-01
4.398163e-01
5.792175e-01
4.781281e-01
6.067291e-01
5.127594e-01
4.952667e-01
6.278320e-01
6.029877e-01
4.947418e-01
6.023987e-01
4.744537e-01
5.816406e-01
5.068695e-01
4.858185e-01
5.152100e-01
2.787262e-01
5.757935e-01
3.380524e-01
3.650177e-01
3.401184e-01
2.600159e-01
3.600250e-01
2.228851e-01
3.191742e-01
1.970062e-01
1.554565e-01
2.681274e-01
2.274445e-01
1.068878e-01
2.052856e-01
7.028503e-02
1.719299e-01
9.234924e-02
6.629028e-02
8.983459e-02
-1.540894e-01
1.336060e-01
-1.157349e-01
-1.027740e-01
-1.438354e-01
-2.419495e-01
-1.610535e-01
-3.176453e-01
-2.402863e-01
-3.797821e-01
-4.359985e-01
-3.341309e-01
-3.807678e-01
-5.015656e-01
-3.969391e-01
-5.187622e-01
-3.966187e-01
-4.484467e-01
-4.397522e-01
-3.748993e-01
-5.717682e-01
-2.321198e-01
-4.258453e-01
-3.547699e-01
-3.364563e-01
-3.752258e-01
-2.361328e-01
-3.368652e-01
-2.068329e-01
-2.975952e-01
-3.095673e-01
-1.682129e-01
-1.802856e-01
-2.712097e-01
-1.411743e-01
-2.415680e-01
-1.014893e-01
-1.383423e-01
-1.168823e-01
-4.102478e-02
-2.280060e-01
1.206604e-01
-6.468811e-02
1.431885e-02
3.997192e-02
7.983398e-03
1.528503e-01
5.644531e-02
1.889099e-01
9.815674e-02
8.351746e-02
2.190308e-01
1.976593e-01
9.371948e-02
2.069916e-01
8.632507e-02
2.029205e-01
1.399414e-01
1.331390e-01
1.793335e-01
-3.798523e-02
2.805450e-01
6.622925e-02
1.181702e-01
1.193512e-01
6.586914e-02
1.926025e-01
8.173828e-02
2.034943e-01
1.055878e-01
8.683777e-02
2.206940e-01
1.995117e-01
9.701233e-02
2.121704e-01
9.304504e-02
2.099884e-01
1.455231e-01
1.350128e-01
1.749725e-01
-5.116882e-02
2.558838e-01
2.763977e-02
6.359863e-02
4.740295e-02
-2.409668e-02
8.472900e-02
-4.319763e-02
6.298218e-02
-4.818726e-02
-7.729492e-02
4.966736e-02
2.527771e-02
-7.683411e-02
4.228210e-02
-6.970215e-02
5.727234e-02
5.032349e-03
8.056641e-03
6.199951e-02
-1.506409e-01
1.687744e-01
-4.905701e-02
-5.282593e-03
-1.693420e-02
-8.749084e-02
1.861267e-02
-1.155823e-01
-1.885681e-02
-1.423889e-01
-1.860657e-01
-7.518005e-02
-1.162231e-01
-2.345764e-01
-1.304687e-01
-2.553314e-01
-1.384857e-01
-1.974030e-01
-1.970856e-01
-1.414917e-01
-3.480164e-01
-1.821594e-02
-2.216125e-01
-1.598053e-01
-1.501343e-01
-1.967987e-01
-6.494751e-02
-1.722931e-01
-4.837646e-02
-1.448273e-01
-1.622040e-01
-2.620239e-02
-4.373779e-02
-1.404541e-01
-1.660156e-02
-1.236481e-01
9.286499e-03
-3.517151e-02
-2.178040e-02
4.569397e-02
-1.498657e-01
1.902679e-01
-3.369141e-03
6.774902e-02
8.611145e-02
4.752808e-02
1.866852e-01
8.554077e-02
2.142609e-01
1.207153e-01
1.040894e-01
2.383270e-01
2.162018e-01
1.118500e-01
2.248291e-01
1.037018e-01
2.194489e-01
1.550171e-01
1.460449e-01
1.892731e-01
-3.186340e-02
2.820343e-01
6.232605e-02
1.083313e-01
1.032990e-01
4.359741e-02
1.644287e-01
4.827881e-02
1.657074e-01
6.475220e-02
4.450073e-02
1.786194e-01
1.595520e-01
6.105347e-02
1.820435e-01
7.041931e-02
1.963104e-01
1.418793e-01
1.420685e-01
1.928925e-01
-2.268677e-02
2.941467e-01
7.440491e-02
1.171478e-01
1.055847e-01
3.631592e-02
1.447754e-01
1.388855e-02
1.145569e-01
-4.559326e-03
-4.371033e-02
7.149048e-02
3.419189e-02
-8.144531e-02
2.409668e-02
-1.009186e-01
1.410217e-02
-4.839783e-02
-5.350647e-02
-5.203247e-03
-2.207947e-01
9.843750e-02
-1.167755e-01
-6.777039e-02
-7.178040e-02
-1.327606e-01
-1.561890e-02
-1.378448e-01
-2.881775e-02
-1.402130e-01
-1.725677e-01
-5.164490e-02
-8.439941e-02
-1.965302e-01
-8.843384e-02
-2.116943e-01
-9.555359e-02
-1.573822e-01
-1.618652e-01
-1.126221e-01
-3.266327e-01
-4.946899e-03
-2.166687e-01
-1.628693e-01
-1.605347e-01
-2.134674e-01
-8.655396e-02
-1.974335e-01
-7.556152e-02
-1.727386e-01
-1.896820e-01
-5.241394e-02
-6.831055e-02
-1.634583e-01
-3.870850e-02
-1.459808e-01
-1.490784e-02
-6.330872e-02
-5.627747e-02
2.087402e-03
-2.054016e-01
1.199615e-01
-9.104919e-02
-3.961487e-02
-4.288330e-02
-1.045135e-01
1.073608e-02
-1.144440e-01
-9.219360e-03
-1.250946e-01
-1.623383e-01
-4.658203e-02
-8.464050e-02
-2.021759e-01
-9.956360e-02
-2.283051e-01
-1.177277e-01
-1.853058e-01
-1.959930e-01
-1.536163e-01
-3.752686e-01
-6.224060e-02
-2.837769e-01
-2.412781e-01
-2.518341e-01
-3.191193e-01
-2.078979e-01
-3.354034e-01
-2.309265e-01
-3.456360e-01
-3.794586e-01
-2.575012e-01
-2.858673e-01
-3.897461e-01
-2.686005e-01
-3.732605e-01
-2.320770e-01
-2.614807e-01
-2.257080e-01
-1.277008e-01
-2.844940e-01
1.030151e-01
-3.439941e-02
1.017120e-01
1.938385e-01
2.366394e-01
4.639832e-01
4.565521e-01
6.833771e-01
6.909760e-01
7.762604e-01
1.011237e+00
1.086215e+00
1.073679e+00
1.271161e+00
1.225211e+00
1.404974e+00
1.391275e+00
1.418896e+00
1.483337e+00
1.267828e+00
1.571378e+00
1.324979e+00
1.328696e+00
1.266080e+00
1.135324e+00
1.172836e+00
9.624664e-01
9.765259e-01
7.643036e-01
6.274017e-01
6.411652e-01
4.999298e-01
2.788483e-01
2.778595e-01
4.648132e-02
5.585327e-02
-1.104767e-01
-2.171661e-01
-2.679413e-01
-5.796204e-01
-3.532379e-01
-6.569763e-01
-6.919464e-01
-7.750763e-01
-9.103119e-01
-8.624695e-01
-1.048059e+00
-9.962982e-01
-1.158569e+00
-1.235706e+00
-1.153711e+00
-1.219058e+00
-1.357645e+00
-1.269815e+00
-1.407724e+00
-1.301291e+00
-1.368115e+00
-1.373566e+00
-1.321335e+00
-1.528909e+00
-1.197903e+00
-1.397867e+00
-1.330624e+00
-1.312726e+00
-1.347876e+00
-1.200522e+00
-1.288220e+00
-1.140677e+00
-1.208405e+00
-1.191422e+00
-1.014166e+00
-9.834595e-01
-1.025241e+00
-8.390015e-01
-8.763275e-01
-6.652679e-01
-6.236664e-01
-5.169006e-01
-3.490875e-01
-4.385101e-01
1.363525e-02
-6.342773e-02
1.279816e-01
2.687988e-01
3.530182e-01
6.142609e-01
6.326965e-01
8.779510e-01
8.959473e-01
9.844849e-01
1.215991e+00
1.281851e+00
1.256500e+00
1.438272e+00
1.375732e+00
1.538770e+00
1.509958e+00
1.526031e+00
1.583740e+00
1.367844e+00
1.677377e+00
1.444208e+00
1.468796e+00
1.435175e+00
1.341373e+00
1.422693e+00
1.262360e+00
1.331326e+00
1.178314e+00
1.103458e+00
1.180603e+00
1.102774e+00
9.432922e-01
1.001193e+00
8.245941e-01
8.837891e-01
7.614929e-01
6.920013e-01
6.710815e-01
3.814819e-01
6.222504e-01
3.251892e-01
2.890869e-01
1.969635e-01
4.522400e-02
6.959839e-02
-1.460510e-01
-1.306061e-01
-3.351959e-01
-4.601135e-01
-4.306885e-01
-5.528961e-01
-7.520630e-01
-7.278748e-01
-9.319336e-01
-8.931671e-01
-1.028400e+00
-1.102017e+00
-1.116547e+00
-1.388882e+00
-1.119385e+00
-1.376697e+00
-1.361346e+00
-1.388831e+00
-1.462576e+00
-1.346307e+00
-1.457333e+00
-1.324557e+00
-1.398651e+00
-1.380145e+00
-1.194275e+00
-1.148880e+00
-1.170264e+00
-9.596283e-01
-9.696991e-01
-7.306274e-01
-6.620117e-01
-5.304230e-01
-3.420685e-01
-4.159637e-01
4.477234e-02
-3.161316e-02
1.516632e-01
2.747040e-01
3.320953e-01
5.572113e-01
5.310272e-01
7.232239e-01
6.807190e-01
7.029449e-01
8.637604e-01
8.566650e-01
7.566803e-01
8.639923e-01
7.285004e-01
8.219727e-01
7.288940e-01
6.862671e-01
6.921509e-01
4.313232e-01
7.039185e-01
4.425110e-01
4.472534e-01
4.023376e-01
3.047150e-01
3.897736e-01
2.403107e-01
3.268829e-01
1.977478e-01
1.518066e-01
2.624878e-01
2.219177e-01
1.034058e-01
2.056396e-01
7.608643e-02
1.846283e-01
1.130890e-01
9.607239e-02
1.293762e-01
-1.042847e-01
1.939453e-01
-4.494324e-02
-2.186279e-02
-5.358887e-02
-1.434235e-01
-5.568237e-02
-2.072021e-01
-1.268036e-01
-2.655914e-01
-3.235657e-01
-2.260834e-01
-2.797272e-01
-4.100922e-01
-3.173859e-01
-4.531372e-01
-3.466034e-01
-4.152588e-01
-4.241486e-01
-3.770569e-01
-5.912537e-01
-2.679657e-01
-4.765350e-01
-4.184296e-01
-4.107971e-01
-4.576630e-01
-3.239105e-01
-4.271545e-01
-2.969482e-01
-3.849487e-01
-3.918335e-01
-2.433411e-01
-2.465607e-01
-3.273956e-01
-1.863373e-01
-2.751831e-01
-1.232605e-01
-1.481873e-01
-1.149261e-01
-2.738647e-02
-2.028870e-01
1.572327e-01
-1.650391e-02
7.449646e-02
1.128754e-01
9.448242e-02
2.540955e-01
1.737762e-01
3.238831e-01
2.524841e-01
2.587860e-01
4.167175e-01
4.189087e-01
3.394653e-01
4.778076e-01
3.822723e-01
5.235321e-01
4.840485e-01
4.991394e-01
5.650909e-01
3.649933e-01
6.977997e-01
4.943970e-01
5.538025e-01
5.588654e-01
5.058105e-01
6.296692e-01
5.127991e-01
6.257843e-01
5.165955e-01
4.845337e-01
6.034119e-01
5.659546e-01
4.462311e-01
5.432983e-01
4.054138e-01
5.029602e-01
4.185028e-01
3.873108e-01
4.055206e-01
1.563416e-01
4.386780e-01
1.838531e-01
1.911285e-01
1.437378e-01
3.839111e-02
1.104980e-01
-5.681458e-02
7.455444e-03
-1.479462e-01
-2.231537e-01
-1.437714e-01
-2.164001e-01
-3.667664e-01
-2.951447e-01
-4.530792e-01
-3.698090e-01
-4.625732e-01
-4.963470e-01
-4.747986e-01
-7.150269e-01
-4.180756e-01
-6.529175e-01
-6.208374e-01
-6.387787e-01
-7.105988e-01
-6.009918e-01
-7.273102e-01
-6.190308e-01
-7.276825e-01
-7.539093e-01
-6.233948e-01
-6.432007e-01
-7.393158e-01
-6.122314e-01
-7.138397e-01
-5.735016e-01
-6.089203e-01
-5.852264e-01
-5.062958e-01
-6.895294e-01
-3.361755e-01
-5.157654e-01
-4.297333e-01
-3.952759e-01
-4.164673e-01
-2.582489e-01
-3.384827e-01
-1.866821e-01
-2.545776e-01
-2.427979e-01
-7.713013e-02
-6.487427e-02
-1.318115e-01
2.151794e-02
-5.650940e-02
1.047943e-01
8.775330e-02
1.275543e-01
2.202850e-01
4.883728e-02
4.118958e-01
2.399567e-01
3.317352e-01
3.697601e-01
3.500061e-01
5.071747e-01
4.232788e-01
5.686676e-01
4.911591e-01
4.899841e-01
6.388702e-01
6.304626e-01
5.388123e-01
6.631409e-01
5.518433e-01
6.754364e-01
6.165833e-01
6.106781e-01
6.541016e-01
4.301727e-01
7.379272e-01
5.086731e-01
5.416718e-01
5.201996e-01
4.408600e-01
5.389648e-01
3.973999e-01
4.870300e-01
3.563812e-01
3.050598e-01
4.072296e-01
3.559570e-01
2.254028e-01
3.150787e-01
1.732544e-01
2.704926e-01
1.893402e-01
1.648743e-01
1.933380e-01
-4.242249e-02
2.564728e-01
2.095642e-02
4.987183e-02
2.620850e-02
-5.387573e-02
4.483643e-02
-9.506226e-02
-2.935791e-03
-1.304260e-01
-1.781281e-01
-7.182007e-02
-1.185181e-01
-2.440552e-01
-1.489594e-01
-2.848999e-01
-1.811920e-01
-2.552368e-01
-2.718414e-01
-2.347107e-01
-4.608185e-01
-1.511627e-01
-3.747375e-01
-3.326019e-01
-3.416809e-01
-4.056519e-01
-2.892334e-01
-4.098145e-01
-2.967682e-01
-4.017212e-01
-4.252777e-01
-2.932587e-01
-3.128021e-01
-4.099426e-01
-2.853485e-01
-3.909546e-01
-2.562805e-01
-2.990448e-01
-2.843994e-01
-2.163666e-01
-4.123260e-01
-7.360535e-02
-2.695679e-01
-2.015625e-01
-1.868469e-01
-2.293610e-01
-9.406433e-02
-1.985474e-01
-7.219238e-02
-1.667084e-01
-1.825836e-01
-4.562073e-02
-6.285400e-02
-1.600311e-01
-3.760376e-02
-1.470764e-01
-1.772461e-02
-6.697998e-02
-5.963745e-02
6.195068e-04
-2.031830e-01
1.278748e-01
-7.535095e-02
-1.401367e-02
-5.178833e-03
-5.266418e-02
7.864990e-02
-2.882080e-02
9.548035e-02
-1.800537e-04
-1.645813e-02
1.207306e-01
1.042084e-01
8.078003e-03
1.316895e-01
2.326965e-02
1.533478e-01
1.043213e-01
1.113098e-01
1.703827e-01
-3.558350e-02
2.921204e-01
8.426208e-02
1.396851e-01
1.411835e-01
8.499756e-02
2.061279e-01
8.705750e-02
1.984436e-01
8.861389e-02
5.719299e-02
1.783508e-01
1.451843e-01
3.198547e-02
1.384430e-01
1.315308e-02
1.269653e-01
6.266479e-02
5.556030e-02
1.021729e-01
-1.143890e-01
2.049164e-01
-8.895874e-03
4.302063e-02
4.366150e-02
-1.088257e-02
1.144409e-01
1.977539e-03
1.220764e-01
2.281494e-02
3.302002e-03
1.374207e-01
1.178040e-01
1.832581e-02
1.381683e-01
2.543945e-02
1.506378e-01
9.620056e-02
9.728394e-02
1.501343e-01
-6.217957e-02
2.593567e-01
4.584045e-02
9.642029e-02
9.432373e-02
3.605042e-02
1.569733e-01
3.984375e-02
1.554901e-01
5.246582e-02
3.027649e-02
1.631042e-01
1.438080e-01
4.643860e-02
1.703644e-01
6.361084e-02
1.965820e-01
1.514191e-01
1.629700e-01
2.271210e-01
2.638855e-02
3.593323e-01
1.564301e-01
2.163055e-01
2.215485e-01
1.681244e-01
2.909515e-01
1.723206e-01
2.828247e-01
1.705383e-01
1.349365e-01
2.500824e-01
2.088959e-01
8.565063e-02
1.797058e-01
3.962097e-02
1.360474e-01
5.169678e-02
2.190857e-02
4.300232e-02
-2.016937e-01
8.687439e-02
-1.600159e-01
-1.432526e-01
-1.795471e-01
-2.722504e-01
-1.858459e-01
-3.372833e-01
-2.556641e-01
-3.922180e-01
-4.471741e-01
-3.459930e-01
-3.952972e-01
-5.207977e-01
-4.227661e-01
-5.528961e-01
-4.404510e-01
-5.028351e-01
-5.050690e-01
-4.510498e-01
-6.582062e-01
-3.279510e-01
-5.297180e-01
-4.650604e-01
-4.513733e-01
-4.929108e-01
-3.549164e-01
-4.552521e-01
-3.236267e-01
-4.118927e-01
-4.207672e-01
-2.761810e-01
-2.853027e-01
-3.739746e-01
-2.425110e-01
-3.423737e-01
-2.026306e-01
-2.406189e-01
-2.210266e-01
-1.472351e-01
-3.360718e-01
1.164246e-02
-1.732208e-01
-9.185181e-02
-6.123657e-02
-8.531494e-02
7.102051e-02
-1.015015e-02
1.414154e-01
7.364502e-02
8.549805e-02
2.507965e-01
2.618896e-01
1.925659e-01
3.417786e-01
2.574982e-01
4.100952e-01
3.818146e-01
4.078400e-01
4.841888e-01
2.938751e-01
6.357452e-01
4.407776e-01
5.081940e-01
5.209869e-01
4.756165e-01
6.071838e-01
4.983002e-01
6.198364e-01
5.200684e-01
4.984894e-01
6.289307e-01
6.041626e-01
4.982391e-01
6.104156e-01
4.888580e-01
6.038086e-01
5.375916e-01
5.251892e-01
5.627472e-01
3.332214e-01
6.354462e-01
4.004364e-01
4.272034e-01
3.989075e-01
3.121094e-01
4.022705e-01
2.523682e-01
3.333435e-01
1.937836e-01
1.334869e-01
2.268677e-01
1.671844e-01
2.866516e-02
1.107178e-01
-3.836670e-02
5.195313e-02
-3.583069e-02
-6.682434e-02
-4.510498e-02
-2.879913e-01
3.176880e-03
-2.407410e-01
-2.210144e-01
-2.547058e-01
-3.456024e-01
-2.583740e-01
-4.100922e-01
-3.297638e-01
-4.684967e-01
-5.264191e-01
-4.287659e-01
-4.819336e-01
-6.111816e-01
-5.163818e-01
-6.488861e-01
-5.376556e-01
-5.999878e-01
-6.006714e-01
-5.434784e-01
-7.458160e-01
-4.091949e-01
-6.034424e-01
-5.303955e-01
-5.079010e-01
-5.406036e-01
-3.941772e-01
-4.871338e-01
-3.496735e-01
-4.342346e-01
-4.418549e-01
-2.987305e-01
-3.122742e-01
-4.084351e-01
-2.877197e-01
-4.013977e-01
-2.783295e-01
-3.354950e-01
-3.371918e-01
-2.865967e-01
-5.000092e-01
-1.779144e-01
-3.889374e-01
-3.339142e-01
-3.296936e-01
-3.798706e-01
-2.493561e-01
-3.558807e-01
-2.293091e-01
-3.217804e-01
-3.342438e-01
-1.930634e-01
-2.057648e-01
-2.987732e-01
-1.728699e-01
-2.797241e-01
-1.485840e-01
-1.964508e-01
-1.877625e-01
-1.254028e-01
-3.254730e-01
1.205750e-02
-1.804596e-01
-1.029358e-01
-7.090149e-02
-8.721008e-02
8.429871e-02
2.700195e-02
2.120270e-01
1.881531e-01
2.540955e-01
4.833282e-01
5.674622e-01
5.793243e-01
8.167847e-01
8.255432e-01
1.073807e+00
1.141031e+00
1.260034e+00
1.424493e+00
1.314673e+00
1.727118e+00
1.590106e+00
1.701260e+00
1.742065e+00
1.708212e+00
1.834457e+00
1.702960e+00
1.785303e+00
1.630289e+00
1.539291e+00
1.587930e+00
1.470712e+00
1.263940e+00
1.268417e+00
1.035071e+00
1.036151e+00
8.559357e-01
7.310638e-01
6.584259e-01
3.223969e-01
5.223541e-01
1.900635e-01
1.245575e-01
8.511353e-03
-1.617889e-01
-1.514954e-01
-3.775452e-01
-3.695618e-01
-5.794312e-01
-7.079254e-01
-6.809540e-01
-8.045410e-01
-1.004218e+00
-9.799866e-01
-1.183371e+00
-1.143390e+00
-1.276212e+00
-1.346124e+00
-1.356116e+00
-1.623132e+00
-1.348285e+00
-1.600162e+00
-1.580042e+00
-1.604733e+00
-1.678424e+00
-1.566574e+00
-1.687177e+00
-1.570627e+00
-1.668631e+00
-1.682227e+00
-1.537543e+00
-1.542212e+00
-1.623013e+00
-1.479843e+00
-1.564233e+00
-1.404498e+00
-1.417914e+00
-1.369482e+00
-1.261636e+00
-1.410953e+00
-1.016745e+00
-1.147806e+00
-1.005252e+00
-9.055328e-01
-8.529388e-01
-6.115356e-01
-5.998016e-01
-3.479584e-01
-3.090607e-01
-1.857666e-01
9.485779e-02
2.232147e-01
2.720032e-01
5.379700e-01
5.670380e-01
8.276703e-01
8.999207e-01
1.018390e+00
1.177359e+00
1.059140e+00
1.461340e+00
1.314157e+00
1.417703e+00
1.455038e+00
1.424008e+00
1.559952e+00
1.446332e+00
1.555786e+00
1.437939e+00
1.394519e+00
1.500183e+00
1.448831e+00
1.315506e+00
1.400305e+00
1.252615e+00
1.342740e+00
1.253189e+00
1.218280e+00
1.233597e+00
9.817596e-01
1.260812e+00
1.001385e+00
1.001062e+00
9.419525e-01
8.199005e-01
8.698975e-01
6.752533e-01
7.064056e-01
5.118195e-01
3.914307e-01
4.202606e-01
2.931427e-01
8.515625e-02
9.682007e-02
-1.227570e-01
-1.019318e-01
-2.564575e-01
-3.503357e-01
-3.862518e-01
-6.811493e-01
-4.358154e-01
-7.188232e-01
-7.311798e-01
-7.891663e-01
-8.971161e-01
-8.198334e-01
-9.750214e-01
-8.921295e-01
-1.021899e+00
-1.065225e+00
-9.473145e-01
-9.753845e-01
-1.074902e+00
-9.452850e-01
-1.038055e+00
-8.815460e-01
-8.935181e-01
-8.385101e-01
-7.201324e-01
-8.557007e-01
-4.462982e-01
-5.624725e-01
-4.062958e-01
-2.966980e-01
-2.390045e-01
2.105713e-04
7.537842e-04
2.310944e-01
2.363068e-01
3.138184e-01
5.354370e-01
5.918060e-01
5.554382e-01
7.234863e-01
6.436707e-01
7.857391e-01
7.323181e-01
7.190948e-01
7.426392e-01
4.875549e-01
7.539886e-01
4.752869e-01
4.526245e-01
3.711914e-01
2.297699e-01
2.653961e-01
6.322937e-02
9.583740e-02
-8.663330e-02
-1.834503e-01
-1.199036e-01
-2.022400e-01
-3.562927e-01
-2.825378e-01
-4.332855e-01
-3.388733e-01
-4.176544e-01
-4.357880e-01
-3.979279e-01
-6.223358e-01
-3.111115e-01
-5.342010e-01
-4.936218e-01
-5.066559e-01
-5.773651e-01
-4.703369e-01
-6.027496e-01
-5.036957e-01
-6.240295e-01
-6.636902e-01
-5.474457e-01
-5.815918e-01
-6.913666e-01
-5.764954e-01
-6.883148e-01
-5.556000e-01
-5.958435e-01
-5.740356e-01
-4.940735e-01
-6.735718e-01
-3.140228e-01
-4.854858e-01
-3.898804e-01
-3.449799e-01
-3.553925e-01
-1.865265e-01
-2.567596e-01
-9.591064e-02
-1.560089e-01
-1.377899e-01
3.296509e-02
4.906311e-02
-1.500854e-02
1.404572e-01
6.420288e-02
2.272705e-01
2.123871e-01
2.551514e-01
3.519318e-01
1.858490e-01
5.556244e-01
3.918427e-01
4.931580e-01
5.419495e-01
5.339020e-01
7.032867e-01
6.317719e-01
7.892853e-01
7.232788e-01
7.325836e-01
8.905090e-01
8.894409e-01
8.032379e-01
9.310608e-01
8.213135e-01
9.445801e-01
8.837311e-01
8.743530e-01
9.131439e-01
6.837646e-01
9.855865e-01
7.502686e-01
7.772919e-01
7.501221e-01
6.654510e-01
7.586884e-01
6.126984e-01
6.981750e-01
5.634125e-01
5.076599e-01
6.047974e-01
5.475677e-01
4.098053e-01
4.906281e-01
3.379242e-01
4.220825e-01
3.255371e-01
2.833954e-01
2.918823e-01
3.395386e-02
3.087067e-01
4.743042e-02
4.948730e-02
-1.776123e-03
-1.097534e-01
-3.885193e-02
-2.060608e-01
-1.402679e-01
-2.929077e-01
-3.643005e-01
-2.802216e-01
-3.476746e-01
-4.925354e-01
-4.155670e-01
-5.685852e-01
-4.812439e-01
-5.712402e-01
-6.037598e-01
-5.828339e-01
-8.255798e-01
-5.331787e-01
-7.746338e-01
-7.511261e-01
-7.794983e-01
-8.631683e-01
-7.665100e-01
-9.063904e-01
-8.119019e-01
-9.341888e-01
-9.733673e-01
-8.547333e-01
-8.848511e-01
-9.895416e-01
-8.691376e-01
-9.754517e-01
-8.378693e-01
-8.740692e-01
-8.494934e-01
-7.683289e-01
-9.483521e-01
-5.912048e-01
-7.666779e-01
-6.766632e-01
-6.387024e-01
-6.571808e-01
-4.972595e-01
-5.767944e-01
-4.253540e-01
-4.944977e-01
-4.846680e-01
-3.213593e-01
-3.114319e-01
-3.803101e-01
-2.278839e-01
-3.053223e-01
-1.414337e-01
-1.534821e-01
-1.059662e-01
-2.288818e-03
-1.594391e-01
2.214996e-01
7.090149e-02
1.873169e-01
2.532471e-01
2.642731e-01
4.548584e-01
4.064026e-01
5.888031e-01
5.494751e-01
5.870697e-01
7.749878e-01
8.052368e-01
7.515656e-01
9.128082e-01
8.370697e-01
9.946838e-01
9.679596e-01
9.923187e-01
1.063867e+00
8.659119e-01
1.197357e+00
9.893127e-01
1.041150e+00
1.035831e+00
9.700073e-01
1.078683e+00
9.445435e-01
1.038443e+00
9.085937e-01
8.546356e-01
9.504211e-01
8.889801e-01
7.445068e-01
8.164642e-01
6.533875e-01
7.258759e-01
6.168549e-01
5.617279e-01
5.571350e-01
2.864624e-01
5.489960e-01
2.763611e-01
2.678589e-01
2.070038e-01
9.039917e-02
1.536102e-01
-2.029724e-02
3.946533e-02
-1.185883e-01
-1.950928e-01
-1.159088e-01
-1.880829e-01
-3.377228e-01
-2.656311e-01
-4.238708e-01
-3.420532e-01
-4.377899e-01
-4.761963e-01
-4.611542e-01
-7.098175e-01
-4.231995e-01
-6.701416e-01
-6.515900e-01
-6.841217e-01
-7.711426e-01
-6.768951e-01
-8.182709e-01
-7.242249e-01
-8.457581e-01
-8.831024e-01
-7.615875e-01
-7.880646e-01
-8.884003e-01
-7.630127e-01
-8.639221e-01
-7.206238e-01
-7.511719e-01
-7.210999e-01
-6.347870e-01
-8.101288e-01
-4.488373e-01
-6.209381e-01
-5.283112e-01
-4.887085e-01
-5.064850e-01
-3.468201e-01
-4.276245e-01
-2.784271e-01
-3.510651e-01
-3.459137e-01
-1.885925e-01
-1.859619e-01
-2.634827e-01
-1.214203e-01
-2.109589e-01
-6.113892e-02
-8.919067e-02
-5.971680e-02
2.360229e-02
-1.561829e-01
1.996613e-01
2.177734e-02
1.087555e-01
1.432159e-01
1.209808e-01
2.767029e-01
1.924072e-01
3.382935e-01
2.623596e-01
2.637207e-01
4.162842e-01
4.128021e-01
3.274445e-01
4.597443e-01
3.581421e-01
4.934326e-01
4.483521e-01
4.584442e-01
5.201477e-01
3.166718e-01
6.469818e-01
4.420105e-01
5.007660e-01
5.060242e-01
4.539246e-01
5.791870e-01
4.639038e-01
5.783813e-01
4.703949e-01
4.390930e-01
5.580841e-01
5.199158e-01
3.984894e-01
4.930573e-01
3.520569e-01
4.462006e-01
3.583557e-01
3.240845e-01
3.401794e-01
9.031982e-02
3.741547e-01
1.235138e-01
1.380463e-01
1.015259e-01
1.081848e-02
1.016846e-01
-4.276733e-02
4.836426e-02
-7.648315e-02
-1.180695e-01
-2.520752e-03
-3.728027e-02
-1.487762e-01
-3.827820e-02
-1.583374e-01
-3.918457e-02
-9.910583e-02
-1.036835e-01
-5.738220e-02
-2.777924e-01
3.353271e-02
-1.927032e-01
-1.576477e-01
-1.781433e-01
-2.575562e-01
-1.602234e-01
-3.029419e-01
-2.144012e-01
-3.453979e-01
-3.956055e-01
-2.900146e-01
-3.349365e-01
-4.557281e-01
-3.523193e-01
-4.760681e-01
-3.560425e-01
-4.097260e-01
-4.022736e-01
-3.376831e-01
-5.335449e-01
-1.913971e-01
-3.810089e-01
-3.042755e-01
-2.789001e-01
-3.094238e-01
-1.611603e-01
-2.521515e-01
-1.121918e-01
-1.933014e-01
-1.963074e-01
-4.707336e-02
-5.270081e-02
-1.388550e-01
-5.969238e-03
-1.055450e-01
3.325195e-02
-6.909180e-03
9.423828e-03
7.859192e-02
-1.163605e-01
2.233582e-01
2.846069e-02
9.776611e-02
1.140289e-01
7.330017e-02
2.103607e-01
1.073151e-01
2.345612e-01
1.401978e-01
1.235901e-01
2.587280e-01
2.384216e-01
1.368591e-01
2.536255e-01
1.373169e-01
2.588318e-01
2.009735e-01
1.991882e-01
2.499878e-01
3.663940e-02
3.582855e-01
1.459930e-01
1.987091e-01
1.992554e-01
1.437195e-01
2.669891e-01
1.512787e-01
2.668396e-01
1.613800e-01
1.338348e-01
2.577667e-01
2.256866e-01
1.113617e-01
2.138153e-01
8.118286e-02
1.838959e-01
1.046051e-01
7.871094e-02
1.027893e-01
-1.396667e-01
1.507263e-01
-9.434204e-02
-7.526245e-02
-1.081909e-01
-1.960907e-01
-1.031158e-01
-2.460205e-01
-1.536957e-01
-2.772339e-01
-3.169342e-01
-1.984711e-01
-2.289093e-01
-3.344025e-01
-2.156586e-01
-3.248627e-01
-1.917816e-01
-2.344604e-01
-2.184601e-01
-1.480743e-01
-3.410339e-01
1.144409e-03
-1.910889e-01
-1.192627e-01
-1.006805e-01
-1.393860e-01
-2.075195e-04
-1.006561e-01
2.999268e-02
-5.986023e-02
-7.069702e-02
7.178650e-02
6.057129e-02
-3.005371e-02
9.936218e-02
-2.905273e-03
1.336578e-01
9.131165e-02
1.050507e-01
1.708374e-01
-2.858582e-02
3.053406e-01
1.031525e-01
1.635223e-01
1.692261e-01
1.164673e-01
2.403778e-01
1.234894e-01
2.365967e-01
1.282440e-01
9.825745e-02
2.211609e-01
1.902710e-01
8.016357e-02
1.906250e-01
7.034607e-02
1.902374e-01
1.330353e-01
1.340027e-01
1.892578e-01
-1.837769e-02
3.096680e-01
1.039825e-01
1.630615e-01
1.692657e-01
1.182922e-01
2.446686e-01
1.304840e-01
2.459808e-01
1.390381e-01
1.088531e-01
2.293152e-01
1.933990e-01
7.540894e-02
1.750061e-01
4.082947e-02
1.438080e-01
6.696472e-02
4.595337e-02
7.752380e-02
-1.549500e-01
1.477142e-01
-8.332825e-02
-4.903564e-02
-6.633911e-02
-1.390961e-01
-3.233337e-02
-1.638733e-01
-6.350708e-02
-1.833160e-01
-2.242737e-01
-1.126160e-01
-1.558716e-01
-2.802765e-01
-1.866455e-01
-3.267609e-01
-2.298889e-01
-3.134003e-01
-3.419189e-01
-3.189301e-01
-5.609802e-01
-2.686066e-01
-5.103485e-01
-4.868164e-01
-5.146362e-01
-5.970734e-01
-4.986176e-01
-6.364929e-01
-5.400635e-01
-6.610565e-01
-7.000336e-01
-5.831055e-01
-6.175842e-01
-7.298523e-01
-6.207336e-01
-7.420197e-01
-6.232483e-01
-6.817657e-01
-6.825806e-01
-6.289703e-01
-8.373871e-01
-5.081299e-01
-7.090881e-01
-6.405914e-01
-6.181641e-01
-6.444916e-01
-4.830139e-01
-5.497803e-01
-3.733093e-01
-4.040375e-01
-3.424866e-01
-1.141907e-01
-2.650146e-02
-5.935669e-03
2.462433e-01
2.761383e-01
5.525269e-01
6.551392e-01
8.167114e-01
1.030820e+00
9.769409e-01
1.450989e+00
1.380176e+00
1.561035e+00
1.673947e+00
1.713010e+00
1.911685e+00
1.850543e+00
2.000058e+00
1.908017e+00
1.874759e+00
1.975235e+00
1.903146e+00
1.734781e+00
1.770941e+00
1.562909e+00
1.583389e+00
1.416992e+00
1.301315e+00
1.233942e+00
9.003632e-01
1.100720e+00
7.673370e-01
7.000244e-01
5.817688e-01
4.094788e-01
4.180664e-01
1.904602e-01
1.969269e-01
-1.498718e-02
-1.462708e-01
-1.234589e-01
-2.530792e-01
-4.612274e-01
-4.486389e-01
-6.671844e-01
-6.463165e-01
-8.021759e-01
-8.990662e-01
-9.400726e-01
-1.241925e+00
-1.005502e+00
-1.298590e+00
-1.321838e+00
-1.391553e+00
-1.511401e+00
-1.446497e+00
-1.614005e+00
-1.543790e+00
-1.687244e+00
-1.745224e+00
-1.644037e+00
-1.691147e+00
-1.813452e+00
-1.710928e+00
-1.835278e+00
-1.715256e+00
-1.768256e+00
-1.759613e+00
-1.691605e+00
-1.880640e+00
-1.525812e+00
-1.695499e+00
-1.590686e+00
-1.526865e+00
-1.507578e+00
-1.295773e+00
-1.308975e+00
-1.076932e+00
-1.051550e+00
-9.349182e-01
-6.530243e-01
-5.149841e-01
-4.481689e-01
-1.556335e-01
-9.203491e-02
2.110748e-01
3.330231e-01
5.074524e-01
7.276123e-01
6.742950e-01
1.144141e+00
1.065955e+00
1.238834e+00
1.344632e+00
1.380023e+00
1.579572e+00
1.525928e+00
1.691721e+00
1.626297e+00
1.631454e+00
1.781931e+00
1.771759e+00
1.676862e+00
1.797873e+00
1.684924e+00
1.808664e+00
1.751773e+00
1.749161e+00
1.796634e+00
1.577057e+00
1.888144e+00
1.659860e+00
1.689352e+00
1.657999e+00
1.561081e+00
1.632651e+00
1.454944e+00
1.497525e+00
1.307861e+00
1.185443e+00
1.204755e+00
1.060327e+00
8.271271e-01
8.053955e-01
5.447723e-01
5.173309e-01
3.082214e-01
1.543030e-01
5.338440e-02
-3.103577e-01
-1.369507e-01
-4.936798e-01
-5.806885e-01
-7.137970e-01
-8.966614e-01
-8.939117e-01
-1.122583e+00
-1.111993e+00
-1.312833e+00
-1.426035e+00
-1.377124e+00
-1.473074e+00
-1.639548e+00
-1.575668e+00
-1.732928e+00
-1.639471e+00
-1.712369e+00
-1.715814e+00
-1.652200e+00
-1.838165e+00
-1.473682e+00
-1.628088e+00
-1.502649e+00
-1.414780e+00
-1.369098e+00
-1.131122e+00
-1.120465e+00
-8.685638e-01
-8.299194e-01
-7.075958e-01
-4.299988e-01
-3.075073e-01
-2.689392e-01
-1.833496e-02
-9.707642e-03
2.253601e-01
2.674500e-01
3.504028e-01
4.691589e-01
3.067261e-01
6.622498e-01
4.677368e-01
5.236237e-01
5.146057e-01
4.392761e-01
5.350494e-01
3.872864e-01
4.693481e-01
3.321594e-01
2.773651e-01
3.807343e-01
3.367401e-01
2.206726e-01
3.326813e-01
2.209717e-01
3.554169e-01
3.173920e-01
3.408356e-01
4.204132e-01
2.372498e-01
5.881073e-01
4.017273e-01
4.752899e-01
4.900757e-01
4.411835e-01
5.627350e-01
4.366333e-01
5.334320e-01
4.015839e-01
3.414307e-01
4.280792e-01
3.558350e-01
2.003174e-01
2.624603e-01
9.234009e-02
1.620636e-01
5.574341e-02
9.628296e-03
2.086487e-02
-2.269409e-01
6.532593e-02
-1.712860e-01
-1.383667e-01
-1.534637e-01
-2.211823e-01
-1.073059e-01
-2.301880e-01
-1.203674e-01
-2.303619e-01
-2.616241e-01
-1.405884e-01
-1.746399e-01
-2.899323e-01
-1.868225e-01
-3.168060e-01
-2.086243e-01
-2.789337e-01
-2.918304e-01
-2.500214e-01
-4.697784e-01
-1.512360e-01
-3.626953e-01
-3.046844e-01
-2.936554e-01
-3.333252e-01
-1.884949e-01
-2.770172e-01
-1.287750e-01
-1.959900e-01
-1.801697e-01
-8.050537e-03
1.205444e-02
-4.673462e-02
1.141235e-01
4.201050e-02
2.069000e-01
1.905060e-01
2.276154e-01
3.142487e-01
1.333496e-01
4.840515e-01
2.973846e-01
3.727386e-01
3.934540e-01
3.562683e-01
4.968384e-01
3.979614e-01
5.306915e-01
4.433014e-01
4.352539e-01
5.804260e-01
5.712738e-01
4.815796e-01
6.098999e-01
5.038788e-01
6.331726e-01
5.794189e-01
5.771423e-01
6.216156e-01
3.953888e-01
6.967499e-01
4.564484e-01
4.734985e-01
4.309021e-01
3.255493e-01
3.930695e-01
2.170013e-01
2.690247e-01
9.844666e-02
6.024170e-03
6.687317e-02
-2.473145e-02
-1.937012e-01
-1.396942e-01
-3.136322e-01
-2.444580e-01
-3.490997e-01
-3.924377e-01
-3.782227e-01
-6.237976e-01
-3.306732e-01
-5.682373e-01
-5.383789e-01
-5.586121e-01
-6.333984e-01
-5.280426e-01
-6.603058e-01
-5.600769e-01
-6.790894e-01
-7.181122e-01
-6.027924e-01
-6.398956e-01
-7.550964e-01
-6.483795e-01
-7.711029e-01
-6.519806e-01
-7.079834e-01
-7.036133e-01
-6.420715e-01
-8.402618e-01
-4.989655e-01
-6.873779e-01
-6.067749e-01
-5.742645e-01
-5.940826e-01
-4.313843e-01
-5.044647e-01
-3.433624e-01
-4.002930e-01
-3.765381e-01
-1.984222e-01
-1.739197e-01
-2.294250e-01
-6.591492e-02
-1.354004e-01
3.265686e-02
2.039185e-02
6.296692e-02
1.565826e-01
-1.562195e-02
3.454590e-01
1.707611e-01
2.594910e-01
2.946503e-01
2.727234e-01
4.289246e-01
3.457153e-01
4.938538e-01
4.213989e-01
4.277313e-01
5.866058e-01
5.905975e-01
5.136536e-01
6.547180e-01
5.618225e-01
7.050079e-01
6.664337e-01
6.810516e-01
7.447418e-01
5.403442e-01
8.663971e-01
6.537781e-01
7.014648e-01
6.924744e-01
6.232605e-01
7.290100e-01
5.925842e-01
6.849365e-01
5.547058e-01
5.017059e-01
6.002869e-01
5.437592e-01
4.065399e-01
4.883362e-01
3.376770e-01
4.252960e-01
3.339264e-01
2.987640e-01
3.160645e-01
6.879883e-02
3.558105e-01
1.080475e-01
1.243011e-01
8.746338e-02
-6.301880e-03
7.816162e-02
-7.655334e-02
1.556396e-04
-1.433502e-01
-2.076019e-01
-1.182770e-01
-1.822266e-01
-3.251678e-01
-2.474335e-01
-4.005737e-01
-3.136505e-01
-4.038147e-01
-4.356873e-01
-4.127655e-01
-6.519440e-01
-3.540771e-01
-5.880249e-01
-5.547577e-01
-5.711639e-01
-6.410034e-01
-5.290497e-01
-6.527679e-01
-5.416107e-01
-6.473328e-01
-6.706360e-01
-5.375244e-01
-5.552856e-01
-6.500519e-01
-5.225830e-01
-6.247986e-01
-4.862915e-01
-5.247833e-01
-5.054657e-01
-4.322510e-01
-6.223663e-01
-2.770050e-01
-4.654175e-01
-3.889404e-01
-3.646118e-01
-3.962769e-01
-2.486877e-01
-3.393768e-01
-1.978424e-01
-2.757141e-01
-2.736115e-01
-1.172974e-01
-1.139771e-01
-1.896423e-01
-4.492493e-02
-1.316833e-01
2.064514e-02
-5.667114e-03
2.435303e-02
1.067322e-01
-7.575989e-02
2.756256e-01
9.153442e-02
1.708099e-01
1.962921e-01
1.642090e-01
3.096832e-01
2.151917e-01
3.515625e-01
2.672058e-01
2.617584e-01
4.094421e-01
4.032501e-01
3.175751e-01
4.519867e-01
3.549194e-01
4.969360e-01
4.604340e-01
4.805664e-01
5.533997e-01
3.616882e-01
7.039429e-01
5.106506e-01
5.803986e-01
5.956970e-01
5.524170e-01
6.852081e-01
5.761841e-01
6.957306e-01
5.918060e-01
5.637390e-01
6.854462e-01
6.498413e-01
5.311798e-01
6.289368e-01
4.917267e-01
5.903412e-01
5.076782e-01
4.792664e-01
5.015930e-01
2.580292e-01
5.476868e-01
3.018494e-01
3.196259e-01
2.840881e-01
1.915924e-01
2.772736e-01
1.237396e-01
2.015198e-01
5.881958e-02
-5.087280e-03
8.380432e-02
1.838074e-02
-1.273468e-01
-5.398254e-02
-2.132782e-01
-1.345184e-01
-2.349487e-01
-2.792267e-01
-2.708344e-01
-5.265472e-01
-2.470703e-01
-5.010040e-01
-4.890259e-01
-5.277344e-01
-6.205292e-01
-5.318848e-01
-6.789307e-01
-5.908234e-01
-7.190643e-01
-7.641815e-01
-6.520538e-01
-6.899078e-01
-8.038788e-01
-6.947662e-01
-8.145966e-01
-6.930725e-01
-7.481232e-01
-7.451202e-01
-6.881470e-01
-8.945740e-01
-5.656982e-01
-7.708710e-01
-7.115082e-01
-7.046265e-01
-7.539398e-01
-6.240509e-01
-7.322754e-01
-6.079254e-01
-7.023315e-01
-7.157043e-01
-5.734406e-01
-5.822784e-01
-6.679535e-01
-5.306976e-01
-6.219513e-01
-4.708008e-01
-4.945831e-01
-4.582397e-01
-3.654388e-01
-5.333008e-01
-1.629486e-01
-3.235901e-01
-2.165894e-01
-1.589996e-01
-1.549133e-01
3.070679e-02
-1.986694e-02
1.637817e-01
1.299591e-01
1.776520e-01
3.808167e-01
4.319244e-01
4.049103e-01
5.990387e-01
5.619568e-01
7.638275e-01
7.863220e-01
8.642120e-01
9.931244e-01
8.551575e-01
1.248392e+00
1.102542e+00
1.216025e+00
1.270898e+00
1.262747e+00
1.425931e+00
1.342004e+00
1.481427e+00
1.391852e+00
1.372803e+00
1.498138e+00
1.460605e+00
1.334784e+00
1.420059e+00
1.265579e+00
1.342307e+00
1.233392e+00
1.174811e+00
1.163129e+00
8.823486e-01
1.131848e+00
8.434265e-01
8.166229e-01
7.346436e-01
5.943237e-01
6.309875e-01
4.278412e-01
4.557159e-01
2.628754e-01
1.488098e-01
1.874969e-01
7.235107e-02
-1.224945e-01
-9.767151e-02
-3.049286e-01
-2.737518e-01
-4.209930e-01
-5.113190e-01
-5.481995e-01
-8.484070e-01
-6.128174e-01
-9.096588e-01
-9.396484e-01
-1.019095e+00
-1.151230e+00
-1.100403e+00
-1.283264e+00
-1.228937e+00
-1.388284e+00
-1.461481e+00
-1.373901e+00
-1.432214e+00
-1.562524e+00
-1.464810e+00
-1.590839e+00
-1.469620e+00
-1.518732e+00
-1.503671e+00
-1.427957e+00
-1.609137e+00
-1.247998e+00
-1.414050e+00
-1.309116e+00
-1.250253e+00
-1.241965e+00
-1.048840e+00
-1.088989e+00
-8.923035e-01
-9.108337e-01
-8.459747e-01
-6.236725e-01
-5.519501e-01
-5.570831e-01
-3.404144e-01
-3.545166e-01
-1.293884e-01
-8.376465e-02
1.712646e-02
1.684998e-01
5.260620e-02
4.674438e-01
3.427216e-01
4.771576e-01
5.529785e-01
5.662994e-01
7.516815e-01
6.910217e-01
8.552521e-01
7.925995e-01
8.031067e-01
9.608948e-01
9.589661e-01
8.720856e-01
1.000015e+00
8.919342e-01
1.018671e+00
9.630524e-01
9.606232e-01
1.007666e+00
7.876068e-01
1.099136e+00
8.731720e-01
9.083435e-01
8.870544e-01
8.054565e-01
8.980560e-01
7.472137e-01
8.229919e-01
6.730713e-01
5.968658e-01
6.681305e-01
5.802643e-01
4.073792e-01
4.492004e-01
2.548248e-01
2.955383e-01
1.555511e-01
7.099915e-02
3.977051e-02
-2.536957e-01
-8.895874e-03
-2.925903e-01
-3.044617e-01
-3.593323e-01
-4.599518e-01
-3.697296e-01
-5.047302e-01
-3.937195e-01
-4.871765e-01
-4.863770e-01
-3.172089e-01
-2.875458e-01
-3.242950e-01
-1.287903e-01
-1.552643e-01
6.522217e-02
1.123901e-01
2.192596e-01
3.798370e-01
2.741333e-01
6.988922e-01
5.818939e-01
7.203217e-01
7.950348e-01
8.008118e-01
9.717316e-01
8.886658e-01
1.022153e+00
9.197083e-01
8.816193e-01
9.825470e-01
9.157928e-01
7.568359e-01
8.056213e-01
6.127228e-01
6.501526e-01
5.020233e-01
4.051086e-01
3.565186e-01
4.131775e-02
2.595581e-01
-5.622253e-02
-1.061920e-01
-2.069092e-01
-3.611694e-01
-3.334290e-01
-5.399872e-01
-5.100586e-01
-6.953186e-01
-7.964203e-01
-7.394623e-01
-8.307648e-01
-9.963684e-01
-9.369537e-01
-1.104770e+00
-1.029718e+00
-1.128784e+00
-1.167032e+00
-1.148239e+00
-1.389935e+00
-1.093802e+00
-1.328699e+00
-1.295990e+00
-1.312421e+00
-1.381915e+00
-1.269632e+00
-1.392963e+00
-1.281604e+00
-1.386465e+00
-1.407834e+00
-1.271198e+00
-1.283524e+00
-1.370972e+00
-1.232855e+00
-1.320386e+00
-1.161774e+00
-1.174374e+00
-1.123346e+00
-1.011319e+00
-1.155237e+00
-7.548950e-01
-8.797424e-01
-7.314850e-01
-6.270416e-01
-5.711182e-01
-3.280823e-01
-3.167328e-01
-6.744080e-02
-3.327026e-02
8.332825e-02
3.556488e-01
4.745361e-01
5.131775e-01
7.687927e-01
7.878754e-01
1.039453e+00
1.104187e+00
1.217133e+00
1.372833e+00
1.253726e+00
1.657431e+00
1.514114e+00
1.623724e+00
1.668942e+00
1.647049e+00
1.792746e+00
1.688922e+00
1.807687e+00
1.698093e+00
1.661218e+00
1.771164e+00
1.721426e+00
1.586874e+00
1.667529e+00
1.512726e+00
1.592844e+00
1.490530e+00
1.440479e+00
1.438663e+00
1.168124e+00
1.427304e+00
1.147119e+00
1.125516e+00
1.044794e+00
9.010376e-01
9.293091e-01
7.127991e-01
7.218018e-01
5.044464e-01
3.605133e-01
3.647339e-01
2.115906e-01
-2.419739e-02
-4.251709e-02
-2.943085e-01
-3.079681e-01
-4.991089e-01
-6.316345e-01
-7.080780e-01
-1.044864e+00
-8.422180e-01
-1.167853e+00
-1.222153e+00
-1.320688e+00
-1.467050e+00
-1.425320e+00
-1.612305e+00
-1.556931e+00
-1.709424e+00
-1.770407e+00
-1.664941e+00
-1.700015e+00
-1.801257e+00
-1.668167e+00
-1.752679e+00
-1.583578e+00
-1.578976e+00
-1.504019e+00
-1.362552e+00
-1.472421e+00
-1.035059e+00
-1.121280e+00
-9.334930e-01
-7.904480e-01
-6.975525e-01
-4.211670e-01
-3.813660e-01
-1.096008e-01
-6.029663e-02
6.410217e-02
3.358002e-01
4.454193e-01
4.654114e-01
6.930389e-01
6.756866e-01
8.829987e-01
8.968597e-01
9.523254e-01
1.045297e+00
8.594482e-01
1.194244e+00
9.818207e-01
1.022568e+00
1.000711e+00
9.141785e-01
9.994293e-01
8.407776e-01
9.106232e-01
7.586334e-01
6.854889e-01
7.659149e-01
6.936218e-01
5.434357e-01
6.149750e-01
4.566010e-01
5.382935e-01
4.420990e-01
4.027222e-01
4.156555e-01
1.633362e-01
4.436951e-01
1.870789e-01
1.919006e-01
1.407532e-01
2.994690e-02
9.457703e-02
-8.235168e-02
-2.983093e-02
-1.988403e-01
-2.890076e-01
-2.252686e-01
-3.134125e-01
-4.784821e-01
-4.199280e-01
-5.886017e-01
-5.130402e-01
-6.098755e-01
-6.437988e-01
-6.182098e-01
-8.503723e-01
-5.415222e-01
-7.610809e-01
-7.110260e-01
-7.089630e-01
-7.596924e-01
-6.287842e-01
-7.345764e-01
-6.074554e-01
-6.996582e-01
-7.124451e-01
-5.718719e-01
-5.852844e-01
-6.787048e-01
-5.523376e-01
-6.575684e-01
-5.230103e-01
-5.655701e-01
-5.494507e-01
-4.774323e-01
-6.658752e-01
-3.149261e-01
-4.932098e-01
-4.013947e-01
-3.559845e-01
-3.607697e-01
-1.804688e-01
-2.331268e-01
-4.855652e-02
-7.900085e-02
-2.600708e-02
1.837341e-01
2.417511e-01
2.212036e-01
4.204010e-01
3.865051e-01
5.891724e-01
6.097015e-01
6.827118e-01
8.036163e-01
6.549438e-01
1.035144e+00
8.747131e-01
9.727783e-01
1.012064e+00
9.891022e-01
1.138965e+00
1.044241e+00
1.176010e+00
1.082455e+00
1.063397e+00
1.192685e+00
1.163193e+00
1.049127e+00
1.149551e+00
1.012885e+00
1.109256e+00
1.021072e+00
9.833618e-01
9.921112e-01
7.304749e-01
9.972321e-01
7.237244e-01
7.091431e-01
6.368408e-01
5.037537e-01
5.456665e-01
3.462433e-01
3.769104e-01
1.868530e-01
7.636414e-02
1.204071e-01
1.303406e-02
-1.709900e-01
-1.317078e-01
-3.205627e-01
-2.667450e-01
-3.873810e-01
-4.474579e-01
-4.509613e-01
-7.154297e-01
-4.424683e-01
-7.014435e-01
-6.940094e-01
-7.375610e-01
-8.363312e-01
-7.554413e-01
-9.123840e-01
-8.366486e-01
-9.795532e-01
-1.041394e+00
-9.474548e-01
-1.004175e+00
-1.136923e+00
-1.045258e+00
-1.180200e+00
-1.070169e+00
-1.132022e+00
-1.130310e+00
-1.068158e+00
-1.262521e+00
-9.141846e-01
-1.092566e+00
-9.993805e-01
-9.521088e-01
-9.554016e-01
-7.746765e-01
-8.285889e-01
-6.476929e-01
-6.847473e-01
-6.414276e-01
-4.443085e-01
-4.015350e-01
-4.396729e-01
-2.599518e-01
-3.144623e-01
-1.326843e-01
-1.323090e-01
-7.797546e-02
2.666931e-02
-1.350464e-01
2.361084e-01
7.127991e-02
1.698975e-01
2.152161e-01
2.038147e-01
3.708801e-01
2.988007e-01
4.582672e-01
3.973938e-01
4.154297e-01
5.859558e-01
6.012085e-01
5.349365e-01
6.860626e-01
6.025299e-01
7.543793e-01
7.236267e-01
7.452545e-01
8.153046e-01
6.168732e-01
9.488464e-01
7.423096e-01
7.965485e-01
7.948364e-01
7.339813e-01
8.494843e-01
7.243652e-01
8.297241e-01
7.140656e-01
6.771393e-01
7.930450e-01
7.547729e-01
6.363556e-01
7.368469e-01
6.042206e-01
7.084839e-01
6.317749e-01
6.087555e-01
6.351013e-01
3.933380e-01
6.818939e-01
4.316040e-01
4.413025e-01
3.940826e-01
2.864410e-01
3.539062e-01
1.797607e-01
2.353760e-01
6.999512e-02
-1.608276e-02
5.221863e-02
-3.113403e-02
-1.911804e-01
-1.275970e-01
-2.915283e-01
-2.118469e-01
-3.056946e-01
-3.378876e-01
-3.121948e-01
-5.460327e-01
-2.408478e-01
-4.663116e-01
-4.242706e-01
-4.324493e-01
-4.954041e-01
-3.785583e-01
-5.000397e-01
-3.898193e-01
-5.000275e-01
-5.315369e-01
-4.102203e-01
-4.431030e-01
-5.559296e-01
-4.490021e-01
-5.736542e-01
-4.587280e-01
-5.211761e-01
-5.253937e-01
-4.747070e-01
-6.858002e-01
-3.594421e-01
-5.645294e-01
-5.021484e-01
-4.893860e-01
-5.301971e-01
-3.897125e-01
-4.858215e-01
-3.484100e-01
-4.296204e-01
-4.305328e-01
-2.774780e-01
-2.780457e-01
-3.585571e-01
-2.198303e-01
-3.137604e-01
-1.697571e-01
-2.053528e-01
-1.853394e-01
-1.132507e-01
-3.058807e-01
3.601685e-02
-1.563812e-01
-8.388977e-02
-6.323853e-02
-9.799194e-02
4.719543e-02
-4.516602e-02
9.553223e-02
1.746826e-02
1.982117e-02
1.764191e-01
1.796783e-01
1.033508e-01
2.463562e-01
1.565430e-01
3.040314e-01
2.708252e-01
2.917877e-01
3.628265e-01
1.667877e-01
5.024231e-01
3.005951e-01
3.603851e-01
3.649261e-01
3.108124e-01
4.334808e-01
3.158112e-01
4.288757e-01
3.213379e-01
2.930298e-01
4.182922e-01
3.902618e-01
2.832581e-01
3.967590e-01
2.790558e-01
4.005737e-01
3.436279e-01
3.431396e-01
3.950165e-01
1.818756e-01
5.022156e-01
2.866058e-01
3.336639e-01
3.260498e-01
2.597870e-01
3.698486e-01
2.386902e-01
3.369843e-01
2.130432e-01
1.664490e-01
2.714417e-01
2.211731e-01
9.002075e-02
1.776062e-01
3.252869e-02
1.255707e-01
3.951416e-02
9.661865e-03
3.237305e-02
-2.091980e-01
8.390808e-02
-1.572235e-01
-1.336853e-01
-1.624054e-01
-2.470245e-01
-1.522583e-01
-2.953583e-01
-2.056335e-01
-3.345337e-01
-3.824463e-01
-2.749664e-01
-3.188629e-01
-4.398804e-01
-3.382996e-01
-4.657318e-01
-3.513458e-01
-4.124817e-01
-4.140320e-01
-3.597229e-01
-5.668335e-01
-2.365753e-01
-4.382843e-01
-3.733887e-01
-3.592041e-01
-3.999634e-01
-2.608337e-01
-3.597290e-01
-2.263855e-01
-3.127960e-01
-3.198364e-01
-1.735809e-01
-1.813721e-01
-2.691681e-01
-1.375549e-01
-2.381775e-01
-1.003143e-01
-1.414368e-01
-1.262543e-01
-5.834961e-02
-2.545471e-01
8.423157e-02
-1.110931e-01
-4.156494e-02
-2.417297e-02
-6.264038e-02
7.815247e-02
-1.947021e-02
1.149109e-01
2.938843e-02
2.319336e-02
1.702332e-01
1.630951e-01
7.565002e-02
2.070496e-01
1.054108e-01
2.412262e-01
1.968781e-01
2.075043e-01
2.692596e-01
6.516724e-02
3.941956e-01
1.874237e-01
2.440094e-01
2.470276e-01
1.929260e-01
3.169403e-01
2.018036e-01
3.183838e-01
2.150452e-01
1.912872e-01
3.210785e-01
2.972778e-01
1.939667e-01
3.104401e-01
1.948303e-01
3.174103e-01
2.604523e-01
2.588898e-01
3.087952e-01
9.298401e-02
4.101532e-01
1.911316e-01
2.347443e-01
2.240509e-01
1.554169e-01
2.641693e-01
1.330719e-01
2.329315e-01
1.123322e-01
7.100220e-02
1.833954e-01
1.427094e-01
2.322693e-02
1.245087e-01
-5.075073e-03
1.051819e-01
3.779297e-02
2.778625e-02
7.117310e-02
-1.493286e-01
1.649689e-01
-5.524597e-02
-1.132202e-02
-2.057190e-02
-8.699951e-02
2.441711e-02
-1.038361e-01
-1.107788e-03
-1.190338e-01
-1.580902e-01
-4.395752e-02
-8.344421e-02
-2.020660e-01
-1.000366e-01
-2.287811e-01
-1.174072e-01
-1.831329e-01
-1.905487e-01
-1.432526e-01
-3.582672e-01
-3.677063e-02
-2.480530e-01
-1.934113e-01
-1.901855e-01
-2.425201e-01
-1.157227e-01
-2.278290e-01
-1.086975e-01
-2.105316e-01
-2.342590e-01
-1.061462e-01
-1.336578e-01
-2.429108e-01
-1.346619e-01
-2.605133e-01
-1.497345e-01
-2.196075e-01
-2.347687e-01
-1.986938e-01
-4.279388e-01
-1.231293e-01
-3.528778e-01
-3.179382e-01
-3.349945e-01
-4.074493e-01
-2.998779e-01
-4.295685e-01
-3.259399e-01
-4.407196e-01
-4.745605e-01
-3.535156e-01
-3.849121e-01
-4.950653e-01
-3.847961e-01
-5.059998e-01
-3.882324e-01
-4.490234e-01
-4.534149e-01
-4.049408e-01
-6.202637e-01
-2.999786e-01
-5.123962e-01
-4.580353e-01
-4.528412e-01
-4.996094e-01
-3.620361e-01
-4.563141e-01
-3.109283e-01
-3.763092e-01
-3.524872e-01
-1.646301e-01
-1.194214e-01
-1.426941e-01
6.508789e-02
5.113831e-02
2.852234e-01
3.483337e-01
4.741669e-01
6.573486e-01
5.782257e-01
1.033469e+00
9.510651e-01
1.127814e+00
1.244348e+00
1.294440e+00
1.511188e+00
1.474652e+00
1.654395e+00
1.597318e+00
1.602350e+00
1.743176e+00
1.712167e+00
1.584283e+00
1.659198e+00
1.486926e+00
1.539249e+00
1.399936e+00
1.306067e+00
1.255002e+00
9.322418e-01
1.138193e+00
8.054993e-01
7.346191e-01
6.093475e-01
4.276520e-01
4.254669e-01
1.865845e-01
1.821198e-01
-3.947754e-02
-1.782990e-01
-1.601959e-01
-2.913940e-01
-4.978546e-01
-4.801971e-01
-6.903320e-01
-6.577637e-01
-7.990448e-01
-8.790100e-01
-9.011597e-01
-1.182782e+00
-9.250214e-01
-1.196039e+00
-1.196774e+00
-1.243805e+00
-1.341116e+00
-1.253757e+00
-1.398779e+00
-1.305743e+00
-1.426010e+00
-1.460501e+00
-1.335510e+00
-1.358414e+00
-1.455783e+00
-1.327890e+00
-1.426749e+00
-1.281827e+00
-1.311108e+00
-1.280228e+00
-1.192297e+00
-1.364355e+00
-9.966980e-01
-1.158627e+00
-1.051706e+00
-9.920715e-01
-9.834198e-01
-7.892548e-01
-8.272614e-01
-6.271393e-01
-6.403595e-01
-5.680847e-01
-3.355042e-01
-2.507050e-01
-2.402161e-01
-5.831909e-03
-8.270264e-04
2.446625e-01
3.112732e-01
4.333160e-01
6.048065e-01
5.070251e-01
9.372345e-01
8.245697e-01
9.677887e-01
1.048181e+00
1.061578e+00
1.241910e+00
1.171170e+00
1.321072e+00
1.239838e+00
1.228180e+00
1.360019e+00
1.328998e+00
1.210822e+00
1.305939e+00
1.164526e+00
1.257434e+00
1.168103e+00
1.132437e+00
1.147437e+00
8.971069e-01
1.180240e+00
9.280304e-01
9.388092e-01
8.953705e-01
7.939056e-01
8.691254e-01
7.035583e-01
7.667633e-01
6.064789e-01
5.217834e-01
5.867157e-01
4.947266e-01
3.194824e-01
3.603119e-01
1.656036e-01
2.065125e-01
6.679077e-02
-1.802368e-02
-5.111389e-02
-3.491516e-01
-1.124573e-01
-4.088531e-01
-4.388092e-01
-5.184204e-01
-6.512939e-01
-6.016846e-01
-7.863892e-01
-7.343262e-01
-8.961487e-01
-9.725647e-01
-8.889343e-01
-9.522095e-01
-1.087888e+00
-9.954437e-01
-1.126645e+00
-1.010193e+00
-1.063715e+00
-1.051627e+00
-9.768646e-01
-1.156458e+00
-7.909668e-01
-9.500671e-01
-8.348511e-01
-7.625488e-01
-7.373596e-01
-5.244843e-01
-5.429169e-01
-3.230255e-01
-3.182434e-01
-2.304016e-01
1.307678e-02
1.028687e-01
1.112732e-01
3.350952e-01
3.211365e-01
5.381378e-01
5.668823e-01
6.410950e-01
7.551605e-01
5.915009e-01
9.482208e-01
7.562836e-01
8.147461e-01
8.066925e-01
7.293976e-01
8.188416e-01
6.593414e-01
7.231323e-01
5.601929e-01
4.717377e-01
5.333466e-01
4.399994e-01
2.674255e-01
3.166443e-01
1.370361e-01
1.998657e-01
8.844910e-02
3.829956e-02
4.600220e-02
-2.057343e-01
8.149109e-02
-1.619812e-01
-1.379608e-01
-1.640259e-01
-2.447357e-01
-1.456177e-01
-2.848816e-01
-1.925140e-01
-3.204712e-01
-3.695374e-01
-2.654663e-01
-3.152435e-01
-4.445068e-01
-3.533234e-01
-4.928650e-01
-3.916962e-01
-4.666168e-01
-4.818787e-01
-4.405792e-01
-6.593262e-01
-3.386780e-01
-5.474854e-01
-4.867920e-01
-4.736877e-01
-5.122742e-01
-3.677490e-01
-4.582458e-01
-3.138672e-01
-3.871002e-01
-3.793671e-01
-2.173828e-01
-2.091888e-01
-2.814819e-01
-1.355560e-01
-2.236115e-01
-7.543945e-02
-1.088348e-01
-8.879395e-02
-1.901245e-02
-2.161835e-01
1.190125e-01
-8.198853e-02
-1.971741e-02
-1.047058e-02
-5.724792e-02
7.585144e-02
-2.795715e-02
1.025055e-01
1.613770e-02
1.267395e-02
1.664673e-01
1.704285e-01
9.854126e-02
2.500427e-01
1.726593e-01
3.364441e-01
3.231079e-01
3.670441e-01
4.636780e-01
2.949982e-01
6.590424e-01
4.857910e-01
5.735321e-01
6.045502e-01
5.745422e-01
7.182526e-01
6.178619e-01
7.440887e-01
6.451813e-01
6.208099e-01
7.452881e-01
7.117920e-01
5.950653e-01
6.948608e-01
5.600739e-01
6.616211e-01
5.823792e-01
5.579895e-01
5.848511e-01
3.462952e-01
6.412109e-01
4.005615e-01
4.232880e-01
3.921967e-01
3.035522e-01
3.923035e-01
2.409180e-01
3.198761e-01
1.772919e-01
1.126068e-01
1.999054e-01
1.323090e-01
-1.599731e-02
5.447693e-02
-1.077789e-01
-3.190918e-02
-1.348846e-01
-1.812897e-01
-1.746735e-01
-4.318176e-01
-1.536072e-01
-4.086365e-01
-3.978302e-01
-4.380829e-01
-5.330750e-01
-4.476471e-01
-5.990570e-01
-5.167389e-01
-6.523315e-01
-7.064545e-01
-6.050507e-01
-6.551270e-01
-7.827148e-01
-6.881592e-01
-8.231232e-01
-7.167847e-01
-7.864380e-01
-7.969513e-01
-7.515930e-01
-9.672089e-01
-6.444031e-01
-8.520020e-01
-7.910461e-01
-7.780884e-01
-8.168152e-01
-6.716522e-01
-7.601105e-01
-6.117554e-01
-6.782593e-01
-6.605957e-01
-4.846924e-01
-4.582489e-01
-5.077087e-01
-3.342255e-01
-3.902924e-01
-2.058228e-01
-1.992493e-01
-1.360291e-01
-2.070312e-02
-1.709747e-01
2.115204e-01
5.698547e-02
1.641083e-01
2.154633e-01
2.072052e-01
3.743439e-01
2.992065e-01
4.527161e-01
3.832672e-01
3.906433e-01
5.490723e-01
5.515106e-01
4.724518e-01
6.114685e-01
5.171478e-01
6.600403e-01
6.225250e-01
6.397888e-01
7.078888e-01
5.097473e-01
8.439178e-01
6.409973e-01
6.996735e-01
7.025604e-01
6.458008e-01
7.642334e-01
6.402771e-01
7.445251e-01
6.251251e-01
5.816803e-01
6.883118e-01
6.382355e-01
5.058319e-01
5.906464e-01
4.413544e-01
5.287231e-01
4.357697e-01
3.979248e-01
4.115997e-01
1.600037e-01
4.420746e-01
1.890869e-01
2.000336e-01
1.580261e-01
5.934753e-02
1.391327e-01
-1.983337e-02
5.309753e-02
-9.348755e-02
-1.601105e-01
-7.244873e-02
-1.372528e-01
-2.802246e-01
-2.014496e-01
-3.524506e-01
-2.622131e-01
-3.478546e-01
-3.740112e-01
-3.440155e-01
-5.748169e-01
-2.672241e-01
-4.902832e-01
-4.451630e-01
-4.488892e-01
-5.054962e-01
-3.799011e-01
-4.899872e-01
-3.655579e-01
-4.587463e-01
-4.706299e-01
-3.274170e-01
-3.367615e-01
-4.250000e-01
-2.931641e-01
-3.933167e-01
-2.550293e-01
-2.960541e-01
-2.813660e-01
-2.148438e-01
-4.134827e-01
-7.823181e-02
-2.780609e-01
-2.138489e-01
-2.024475e-01
-2.473785e-01
-1.132416e-01
-2.173492e-01
-8.888855e-02
-1.794708e-01
-1.896088e-01
-4.524231e-02
-5.361633e-02
-1.407501e-01
-7.476807e-03
-1.057434e-01
3.469849e-02
-4.016113e-03
1.293640e-02
8.142090e-02
-1.158142e-01
2.198273e-01
1.907043e-02
8.072510e-02
8.769836e-02
3.637085e-02
1.619812e-01
4.727173e-02
1.631134e-01
5.809326e-02
3.200684e-02
1.592499e-01
1.330475e-01
2.776489e-02
1.430389e-01
2.731628e-02
1.512451e-01
9.734497e-02
1.006531e-01
1.572815e-01
-5.005188e-02
2.772766e-01
6.988220e-02
1.263458e-01
1.293701e-01
7.490234e-02
1.978790e-01
8.064270e-02
1.937286e-01
8.542175e-02
5.519409e-02
1.772644e-01
1.446991e-01
3.186646e-02
1.384491e-01
1.302795e-02
1.264801e-01
6.155701e-02
5.366211e-02
9.922485e-02
-1.186279e-01
1.990601e-01
-1.679993e-02
3.264771e-02
3.029785e-02
-2.772827e-02
9.355469e-02
-2.355347e-02
9.134827e-02
-1.361389e-02
-3.919067e-02
8.860474e-02
6.253357e-02
-4.338684e-02
7.022400e-02
-4.834290e-02
7.159424e-02
1.263123e-02
1.001587e-02
6.007080e-02
-1.541138e-01
1.664795e-01
-4.709778e-02
4.153442e-03
3.240967e-03
-5.357056e-02
6.884460e-02
-4.702148e-02
6.937256e-02
-3.377991e-02
-5.718689e-02
7.308655e-02
4.977417e-02
-5.317993e-02
6.350708e-02
-5.198364e-02
7.083740e-02
1.440125e-02
1.379395e-02
6.529846e-02
-1.480652e-01
1.727173e-01
-4.129944e-02
8.911133e-03
6.558228e-03
-5.195313e-02
6.878357e-02
-4.852295e-02
6.691589e-02
-3.644409e-02
-5.914307e-02
7.299805e-02
5.281677e-02
-4.562683e-02
7.691040e-02
-3.153076e-02
9.939270e-02
5.182800e-02
6.063232e-02
1.216248e-01
-8.259583e-02
2.464905e-01
3.941956e-02
9.487915e-02
9.555359e-02
3.758850e-02
1.560028e-01
3.326721e-02
1.401154e-01
2.492371e-02
-1.259460e-02
1.018829e-01
6.156006e-02
-5.915527e-02
3.945312e-02
-9.391174e-02
1.165466e-02
-6.099243e-02
-7.649536e-02
-3.839417e-02
-2.635193e-01
4.715881e-02
-1.752808e-01
-1.319305e-01
-1.397858e-01
-2.026337e-01
-8.534241e-02
-2.053650e-01
-9.218750e-02
-1.975586e-01
-2.222076e-01
-9.210510e-02
-1.143921e-01
-2.150879e-01
-9.487305e-02
-2.056763e-01
-7.703247e-02
-1.265930e-01
-1.193817e-01
-5.932007e-02
-2.636963e-01
6.618347e-02
-1.390106e-01
-8.054504e-02
-7.557983e-02
-1.280273e-01
-2.819824e-03
-1.175873e-01
-1.718140e-03
-1.068512e-01
-1.334351e-01
-7.208252e-03
-3.518372e-02
-1.430756e-01
-3.119507e-02
-1.509369e-01
-3.138428e-02
-8.984375e-02
-9.097595e-02
-3.834534e-02
-2.487793e-01
7.681274e-02
-1.306305e-01
-7.222595e-02
-6.508179e-02
-1.130432e-01
1.894531e-02
-8.677979e-02
4.016418e-02
-5.222168e-02
-6.479187e-02
7.631531e-02
6.377563e-02
-2.850647e-02
9.863586e-02
-6.716919e-03
1.258728e-01
7.886963e-02
8.745728e-02
1.478455e-01
-5.696106e-02
2.719147e-01
6.551514e-02
1.229492e-01
1.273590e-01
7.514343e-02
2.014801e-01
8.898010e-02
2.083618e-01
1.080475e-01
8.750916e-02
2.207733e-01
2.005951e-01
1.009369e-01
2.211548e-01
1.094147e-01
2.361633e-01
1.836853e-01
1.868744e-01
2.418610e-01
3.151550e-02
3.547455e-01
1.424255e-01
1.934082e-01
1.907288e-01
1.307220e-01
2.488037e-01
1.276917e-01
2.382019e-01
1.287689e-01
9.894104e-02
2.230347e-01
1.940735e-01
8.628235e-02
1.989807e-01
8.034363e-02
2.008057e-01
1.426971e-01
1.410126e-01
1.916565e-01
-2.272644e-02
2.963989e-01
7.969360e-02
1.259491e-01
1.179749e-01
5.194092e-02
1.629211e-01
3.354492e-02
1.347076e-01
1.500244e-02
-2.579956e-02
8.672485e-02
4.586487e-02
-7.383423e-02
2.745056e-02
-1.016815e-01
9.570313e-03
-5.619202e-02
-6.381836e-02
-1.718750e-02
-2.335663e-01
8.558350e-02
-1.293152e-01
-7.993164e-02
-8.394470e-02
-1.456879e-01
-3.057861e-02
-1.566681e-01
-5.385132e-02
-1.743286e-01
-2.188507e-01
-1.133850e-01
-1.649506e-01
-2.992828e-01
-2.167297e-01
-3.684784e-01
-2.833221e-01
-3.780212e-01
-4.167908e-01
-4.027313e-01
-6.521423e-01
-3.654877e-01
-6.112274e-01
-5.900970e-01
-6.187592e-01
-7.006897e-01
-6.006378e-01
-7.360413e-01
-6.365662e-01
-7.539825e-01
-7.889862e-01
-6.676422e-01
-6.971466e-01
-8.037476e-01
-6.878784e-01
-8.010986e-01
-6.724426e-01
-7.188477e-01
-7.048950e-01
-6.334412e-01
-8.208344e-01
-4.671722e-01
-6.404694e-01
-5.411377e-01
-4.850922e-01
-4.757446e-01
-2.772827e-01
-3.069092e-01
-9.407043e-02
-9.046021e-02
2.166748e-03
2.570282e-01
3.653748e-01
3.997925e-01
6.579895e-01
6.856140e-01
9.509918e-01
1.033615e+00
1.166519e+00
1.343582e+00
1.245407e+00
1.668893e+00
1.542575e+00
1.664444e+00
1.716275e+00
1.694070e+00
1.832809e+00
1.714761e+00
1.811652e+00
1.672348e+00
1.598209e+00
1.664746e+00
1.566254e+00
1.378903e+00
1.403287e+00
1.190091e+00
1.211270e+00
1.050784e+00
9.450836e-01
8.907990e-01
5.721283e-01
7.882080e-01
4.706726e-01
4.185272e-01
3.143463e-01
1.544434e-01
1.735901e-01
-4.510803e-02
-3.114929e-02
-2.364014e-01
-3.615112e-01
-3.324310e-01
-4.551208e-01
-6.550415e-01
-6.322296e-01
-8.381531e-01
-8.019440e-01
-9.398041e-01
-1.016083e+00
-1.033856e+00
-1.310089e+00
-1.046014e+00
-1.310217e+00
-1.304056e+00
-1.344315e+00
-1.435159e+00
-1.341995e+00
-1.482666e+00
-1.387473e+00
-1.507938e+00
-1.544962e+00
-1.424429e+00
-1.453711e+00
-1.559384e+00
-1.441125e+00
-1.550308e+00
-1.415030e+00
-1.452344e+00
-1.427124e+00
-1.341727e+00
-1.512677e+00
-1.139236e+00
-1.290121e+00
-1.166452e+00
-1.084702e+00
-1.049194e+00
-8.240173e-01
-8.276093e-01
-5.901886e-01
-5.647736e-01
-4.539520e-01
-1.847260e-01
-6.653137e-02
-2.657776e-02
2.320984e-01
2.555664e-01
5.124847e-01
5.831207e-01
7.021515e-01
8.640900e-01
7.512909e-01
1.161472e+00
1.024860e+00
1.141452e+00
1.194308e+00
1.181042e+00
1.336877e+00
1.245013e+00
1.377753e+00
1.284436e+00
1.266412e+00
1.398065e+00
1.372916e+00
1.265674e+00
1.376135e+00
1.253387e+00
1.367560e+00
1.300925e+00
1.287698e+00
1.323352e+00
1.090457e+00
1.387067e+00
1.143741e+00
1.158185e+00
1.112524e+00
1.002658e+00
1.063623e+00
8.786438e-01
9.182526e-01
7.308685e-01
6.164001e-01
6.497864e-01
5.256378e-01