0.001614957
0.1415607209628864
-0.07532713142938134
0.030840107304257736
-0.07532713142938134
0.05161495699999998
-0.016548606200134063
0.05329150613323702
0.019778520200134087
-0.10742910752539175
0.001614956999999945
0.11065902152539156
-0.016548606200133945
-0.050061592133237236
0.019778520200134028
-0.04838504300000006
0.07855704542938134
-0.027610193304257666
0.07855639142938117
-0.13833146096288607
0.0016143029999996694
0.14156006696288623
-0.0753277854293815
0.030839453304257667
-0.07532778542938158
0.051614303000000264
-0.016549260200133767
0.05329085213323644
0.019777866200133963
-0.1074297615253913
0.0016143030000000125
0.11065836752539158
-0.01654926020013377
-0.05006224613323708
0.019777866200133748
-0.04838569699999925
0.07855639142938124
-0.0276108473042577
0.07855639142938145
-0.13833146096288598
0.0016143029999993387
0.14156006696288628
-0.0753277854293816
0.030839453304257598
-0.07532778542938144
0.051614303000000014
-0.016549260200133906
0.05329085213323683
0.01977786620013434
-0.10742976152539202
0.001614303000000968
0.11065836752539111
-0.01654926020013275
-0.050062246133238106
0.01977786620013439
-0.04838569699999932
0.07855639142938158
-0.027610847304258373
0.07855639142938171
-0.13833146096288476
0.0016143029999986529
0.14156006696288684
-0.07532778542938126
0.030839453304257917
-0.07532778542938132
0.051614303000001006
-0.016549260200134645
0.05329085213323686
0.019777866200133564
-0.1074297615253917
0.0016143030000015683
0.11065836752539146
-0.016549260200132875
-0.05006224613323844
0.019777866200134362
-0.048385696999999395
0.07855639142938103
-0.027610847304257734
0.07855639142938083
-0.13833146096288584
0.0016143029999986774
0.14156006696288648
-0.07532778542938112
0.03083945330425773
-0.07532778542938191
0.05161430300000093
-0.016549260200133756
0.05329085213323568
0.019777866200135285
-0.10742976152539159
0.0016143029999996818
0.11065836752539061
-0.016549260200132424
-0.05006224613323791
0.01977786620013454
-0.048385696999998756
0.07855639142938044
-0.027610847304257353
0.07855639142938153
-0.1383314609628862
0.0016143030000015442
0.14156006696288653
-0.07532778542938232
0.030839453304258763
-0.07532778542938197
0.05161430300000157
-0.016549260200134065
0.05329085213323552
0.01977786620013689
-0.10742976152539375
0.0016143030000006374
0.11065836752539158
-0.016549260200134287
-0.05006224613323641
0.01977786620013292
-0.04838569699999741
0.07855639142938214
-0.02761084730425897
0.07855639142938149
-0.13833146096288385
0.0016143029999973056
0.14156006696288795
-0.07532778542938175
0.030839453304258305
-0.07532778542938164
0.051614303000000784
-0.016549260200134308
0.05329085213323559
0.019777866200135028
-0.10742976152539231
0.0016143030000008824
0.11065836752539034
-0.016549260200134114
-0.05006224613323773
0.019777866200133557
-0.048385696999998194
0.07855639142938019
-0.02761084730425774
0.07855639142938207
-0.13833146096288787
0.0016143030000037252
0.1415600669628908
-0.07532778542938179
0.030839453304257223
-0.07532778542938172
0.05161430300000142
-0.016549260200132702
0.0532908521332357
0.01977786620013663
-0.10742976152539269
0.0016143030000025486
0.11065836752539138
-0.016549260200131092
-0.0500622461332379
0.019777866200133724
-0.04838569699999613
0.07855639142938149
-0.02761084730425768
0.07855639142938176
-0.13833146096288645
0.0016143029999973549
0.14156006696288767
-0.07532778542938236
0.030839453304257646
-0.07532778542938325
0.051614302999999216
-0.01654926020013438
0.053290852133235776
0.019777866200133352
-0.10742976152539353
0.0016143029999999515
0.11065836752539052
-0.016549260200129503
-0.050062246133239195
0.019777866200135774
-0.04838569699999976
0.07855639142938096
-0.02761084730425761
0.07855639142938173
-0.13833146096288315
0.0016143029999952478
0.1415600669628891
-0.07532778542938266
0.030839453304257972
-0.07532778542938193
0.051614302999999855
-0.016549260200134194
0.05329085213323446
0.019777866200135222
-0.10742976152539248
0.0016143030000001965
0.1106583675253897
-0.01654926020013278
-0.050062246133238855
0.019777866200134095
-0.0483856969999977
0.07855639142937944
-0.027610847304257186
0.07855639142938114
-0.1383314609628863
0.0016143030000030883
0.1415600669628851
-0.07532778542938068
0.030839453304258403
-0.0753277854293815
0.051614302999996226
-0.01654926020013127
0.053290852133231745
0.019777866200139108
-0.107429761525396
0.0016143030000032837
0.1106583675253862
-0.016549260200128885
-0.050062246133241575
0.019777866200137027
-0.04838569700000133
0.07855639142937988
-0.027610847304255174
0.07855639142937852
-0.13833146096288756
0.0016143030000038236
0.14156006696288378
-0.07532778542937896
0.030847580304257063
-0.07534493942938038
0.051534887000001126
-0.016712634200134704
0.053071933133237464
0.01961914020013354
-0.10742154452539145
0.0018874350000021075
0.11121503152539164
-0.015813494200136217
-0.04936732013323585
0.02008411420013271
-0.048798125999996424
0.07725211192938208
-0.029673651104256515
0.0762761118293808
-0.1398715485528816
0.002080249999994611
0.14541418796288977
-0.0668246284293813
0.04489163030425854
-0.05524646842938366
0.07772350000000604
0.015164506799868225
0.08983945913323475
0.060102963200137714
-0.06443962452539309
0.04613583000000093
0.15557185452538996
0.027567496799867402
-0.008039719133239101
0.05846217320013192
-0.014228930000002894
0.10708799842938142
-0.005690250304258394
0.09300583842938023
-0.1319435479628856
-0.00041440820000039055
0.13098833796288575
-0.09435414842938186
0.0036502903042566655
-0.11015061842938431
0.009832819999999562
-0.06449178320013434
9.018913323713407e-05
-0.037695826799865564
-0.16812653452539306
-0.06133539999999456
0.046362244525389146
-0.08132970320013587
-0.11450767913323902
-0.04357102679986604
-0.11006795000000083
0.018981208429379913
-0.08471395030425796
0.024246268429379637
-0.18958646396288875
-0.046459399999992546
0.09672218396288175
-0.11689314842938366
-0.007395549695743089
-0.11020631842938103
0.020082789999995937
-0.04475824320013229
0.028386669133232116
-0.001804446799861404
-0.12575040452539382
-0.013505649999998577
0.0986552745253912
-0.02554190520012656
-0.05614260313324119
0.016377344200136885
-0.049321954099998774
0.07985328142938036
-0.02432288430425596
0.08362898042938191
-0.13177733496288277
0.009431439999998237
0.1504745439628932
-0.06542526842938194
0.04171499030425964
-0.06351173842938254
0.06446464000000084
-0.0024887532001330835
0.06879847913323221
0.037028993200137625
-0.08817789452539555
0.02316833000000309
0.13480742452539124
0.01044113679986787
-0.02005445913324111
0.05283136320013433
-0.01233481999999956
0.11745072842937883
0.013854189695742168
0.12220830842937902
-0.09303111396288591
0.04797823999999471
0.1883618939628883
-0.02872983842938022
0.07662616030425776
-0.0309515284293823
0.09410683000000573
0.02371417679986436
0.09112703913323689
0.05517191320013665
-0.07434922452539555
0.032705640000001916
0.14024266452539128
0.012138506799866881
-0.021562109133236425
0.04885397320013178
-0.01794884999999466
0.11110738842937906
0.007720379695740291
0.11717837842938075
-0.09604967396288708
0.04772921999999971
0.1914769639628852
-0.021867948429383104
0.0873160603042559
-0.016494748429383616
0.11198688000000212
0.04443256679986729
0.11385166913323011
0.07877472320014135
-0.05098272452539347
0.054630929999995054
0.1595033945253896
0.027497196799871067
-0.011411139133243743
0.052865273200134705
-0.020816419999998288
0.10084676842938146
-0.010290900304257153
0.09105584842937894
-0.13014837696287934
0.005924277999990495
0.14235602296289118
-0.07793198222938083
0.024425775304261224
-0.0859224894293834
0.03604780000000701
-0.03821824320013155
0.02401235913323146
-0.019094466799859627
-0.15793539452539884
-0.0628853899999976
0.029688144525384236
-0.11639669320012992
-0.1709048491332424
-0.12387523679986785
-0.2163718000000019
-0.1147824115706183
-0.24650375030426236
-0.16485381157061935
-0.4045349639628897
-0.2849042000000045
-0.16198463603711735
-0.3915629884293837
-0.29237944969574736
-0.3994103884293849
-0.2668596000000023
-0.3227001632001341
-0.23354415086676178
-0.24042793679986518
-0.33428706452538803
-0.18589589999999592
-0.03234903547460667
-0.11082458320013089
-0.09244357913323564
0.03094313320013136
0.016604010000002993
0.19627788842938015
0.14032774969574036
0.2926978884293824
0.11659353603710726
0.2911401000000062
0.4588042639628795
0.262059111570618
0.38018855030425536
0.2775023115706173
0.4001354000000026
0.3204781367998651
0.37218614913323217
0.31456586320014873
0.15808313547460495
0.23433490000000007
0.308399364525388
0.14514063679987843
0.07557555086675832
0.110363693200138
0.009404270000007889
0.10668884842937885
-0.02538817530425836
0.05900516842937546
-0.17516128396287767
-0.04801856000001441
0.08344557396289456
-0.13788769842938892
-0.03263577969574331
-0.13646099842938778
-0.004874100000001026
-0.06683635320012825
0.010122659133232244
-0.016044086799856864
-0.13594993452539503
-0.020503539999998283
0.09355542452538629
-0.030273003200122564
-0.0621761291332416
0.0076882132001371995
-0.062152069999987215
0.06154285842937733
-0.049135920304255634
0.05169353842938638
-0.1708913139628808
-0.03662072999999235
0.09806027396289144
-0.12328315842937801
-0.020343389695740587
-0.12826409842938577
-0.0013828699999961225
-0.06781611320013256
0.005550869133232342
-0.02271715679986704
-0.14317395452539675
-0.026116090000007988
0.09189396452538633
-0.025773721200137333
-0.04963093013324152
0.029571243200131134
-0.029922370000005048
0.10464539842937931
0.004725019695742495
0.11542949842938349
-0.09880263396288394
0.041837310000012645
0.18051121396288655
-0.039565628429376304
0.06160848030425755
-0.0511481384293781
0.06793876000000877
-0.009015856200135118
0.051438940033237006
0.008331987200131995
-0.12834143452539834
-0.028242829999994952
0.07269037452538299
-0.061522143200123426
-0.10068151913324704
-0.03498735679986046
-0.10571550999999446
0.02025795842938173
-0.08531283030425271
0.0229301384293817
-0.19053086396287625
-0.046067680000010776
0.09924163396290342
-0.11167985842938269
0.0007783303042634242
-0.09899045842938489
0.03413492999999662
-0.028304123200134153
0.046602583133226905
0.017313867600140205
-0.10661125452540007
0.004667319000006714
0.11485837152538302
-0.012281226200129008
-0.04674556113324696
0.021195500200136982
-0.04965863409999525
0.0739602034293802
-0.035986645304254584
0.06616919842937882
-0.15482182396287938
-0.01882992000000578
0.11750026396288771
-0.10249376842938096
0.001260970304254861
-0.10656867842938467
0.019564610000001523
-0.04850863320013671
0.02233589913323827
-0.009262956799860767
-0.13374735452538922
-0.021278130000002986
0.09176677452539385
-0.031002143200129985
-0.05979336913323559
0.014870412200134431
-0.04854963599999035
0.08289793842938044
-0.019141960304263142
0.09064689842938055
-0.1232337439628951
0.019045179999999218
0.16061970396288458
-0.055349978429383856
0.051049640304253005
-0.05554338842938617
0.07042648000000074
0.0008487367998607394
0.06893747913323836
0.03346013320013365
-0.0958513045253892
0.011100079999998678
0.11817011852539214
-0.010807676200130957
-0.04580089613323551
0.022852846200133625
-0.04614930699998544
0.08031682442937892
-0.025964709304260414
0.08045004842938226
-0.1358930419628908
0.004858570000009902
0.14582845296288144
-0.06985312442938212
0.03767780530425571
-0.06702176242938593
0.061452790000005635
-0.005140233200141814
0.06629495913324304
0.03439723320013377
-0.09119315452538916
0.01945946000000603
0.13009610452539216
0.004457776799868075
-0.027518669133230825
0.043796043200131085
-0.022965179999980545
0.10528612842937915
0.0003054496957376994
0.10750534842938399
-0.10855452396289571
0.032008680000014895
0.1723453239628783
-0.04439663842938501
0.0616624703042591
-0.044877668429377855
0.08146841999999917
0.012520576799872264
0.08142130913322623
0.04685020320014767
-0.08147064452540155
0.026482629999996326
0.1345221745253798
0.0064396267998819735
-0.02780729913324654
0.041519293200137725
-0.026911730000004068
0.1000165784293798
-0.0059447103042532395
0.1005458784293822
-0.11588098396286803
0.024580949999985793
0.165014483962906
-0.05153472842938571
0.05463288030426182
-0.051889678429381136
0.0742206399999984
0.004659296799871475
0.07244119913322171
0.03608707320014211
-0.09468660452540328
0.010046719999992309
0.11406461152537806
-0.018830700100123606
-0.05862691813325105
0.004534153200136925
-0.07058280000000486
0.04928780842937651
-0.06388936030425052
0.03552040842937933
-0.1876221139628694
-0.05330330000000352
0.08177650396290109
-0.1390827584293794
-0.03588075969573546
-0.1438882584293809
-0.017715619999991036
-0.08562478320012931
-0.014559400866773597
-0.04596502679985427
-0.17027055452540502
-0.05776815000000034
0.05509187452538729
-0.06811695320012917
-0.09762104913324637
-0.02392275679986738
-0.08858999000000564
0.041342068429376745
-0.06242738030425698
0.04551758842937644
-0.17025820396287428
-0.02985280000000421
0.10995494396289618
-0.10756175842938227
-0.0023349096957419255
-0.10967689842938066
0.016039960000008187
-0.053238713200133625
0.015763949133237767
-0.01810276679985985
-0.1451566445253924
-0.03532736999999299
0.07519248452539634
-0.04981469320012555
-0.08036180913323501
-0.006938026799868175
-0.07095227999999505
0.06060590842937697
-0.04059002030426094
0.07080438242938275
-0.14082409826289002
0.004305377999989419
0.14924496496288403
-0.06294004842938514
0.04756895030425412
-0.05475102842938395
0.0755444000000074
0.010238466799865564
0.08244675913323327
0.05084417320013458
-0.0749328945253867
0.03516869000000299
0.14496948452539465
0.018269316799868877
-0.014931679133239527
0.05501320320013102
-0.01315397999999584
0.11372090842937368
0.007434169695741781
0.11343276842937988
-0.10371713396289141
0.0359163000000001
0.1755055139628791
-0.04179712842937883
0.06387887030425683
-0.042871938429383714
0.08342437000001798
0.014571806799864771
0.08368944913323792
0.049418803200138195
-0.0785358745253884
0.029801880000010342
0.1382075545253964
0.010439846799863293
-0.02357800913323484
0.04586045320012671
-0.022619039999996624
0.10407365842937394
-0.002317960304264701
0.10356718842937808
-0.11365936396289626
0.025820439999999417
0.16511472396287422
-0.0526740284293817
0.052260830304250355
-0.05546153842938349
0.06956287000001721
-0.0008911132001395358
0.06629299913324262
0.029775303200152113
-0.1006878425254008
0.004904834000000639
0.11038278252538401
-0.020407931200122797
-0.05741768913325162
0.00917008220014079
-0.06192039000000309
0.06250650842938202
-0.045685080304256706
0.059000898429376294
-0.1587392439628686
-0.01904624000002969
0.1212151039629019
-0.09483847842938349
0.01259072030425943
-0.09194525842938284
0.03683694999999368
-0.02941707320013289
0.042268746133226905
0.010397328200146532
-0.11547631252539903
-0.005540829999992011
0.10386417252538228
-0.023558233200118083
-0.05786175713324696
0.010629765200139998
-0.0593901909999925
0.06527320842938225
-0.04346752030425399
0.06000986842938261
-0.15953291396287347
-0.02202993000001901
0.11584880396290051
-0.10257188842938639
0.0027508103042621496
-0.10347696842938611
0.024253409999992898
-0.04225431320013018
0.030082179133222385
-0.0001764067998590406
-0.12348854452538993
-0.01007525999998466
0.10362440652538057
-0.018856440500123663
-0.04782255413324479
0.02616305420014272
-0.038468619999993285
0.09121438842937897
-0.01315285030425795
0.09375564842937055
-0.12350520396287487
0.014978079999991673
0.15244036396289226
-0.06783877442938925
0.03420157830426487
-0.07663939642938589
0.045341907000003484
-0.027822090200130975
0.03722354913322707
-0.0006225767998554246
-0.13150665452539168
-0.0252962500000171
0.08188148452538235
-0.046149143200129236
-0.0794126291332401
-0.00829761679986862
-0.07426961999999407
0.05563727842937919
-0.04696393030426442
0.06316512842938606
-0.14958640696287975
-0.005579479000009012
0.13813990796288736
-0.07544037842937373
0.033419762304258395
-0.07077887542938566
0.057335342000002704
-0.010464786200142306
0.058972150133231746
0.024387159200139008
-0.10444529752538986
0.00259068399999025
0.10941801572538062
-0.020034347200125622
-0.055628010133235414
0.012443560200130582
-0.05701308499998349
0.06921992542937944
-0.037010736304261695
0.06975954842939237
-0.14590465996287721
-0.004170036999998329
0.13802968196288598
-0.07627479172937661
0.032641758304261116
-0.07080903942938893
0.05864270000000192
-0.007376223200143112
0.06411073913322723
0.03165330320013344
-0.09519754452539161
0.013478089999986231
0.12144540452537887
-0.007471963200131189
-0.043174626133239934
0.02410218920012979
-0.04680632799998427
0.07740326492937616
-0.031268199304258976
0.0728739814293895
-0.14539907896287863
-0.006016984999987647
0.1343131219628811
-0.08115973942937031
0.027488192304263828
-0.07516494642938869
0.0562477470000125
-0.0066200032001438956
0.06914725913323191
0.04191899320013813
-0.07888726452539332
0.03639944999999358
0.1512581745253807
0.029150686799863244
-0.0002937091332556527
0.07239629320013995
0.005715599999992202
0.13267825842938075
0.025006389695749004
0.1281158884293785
-0.09327271396287254
0.04091494999995482
0.17405812396290135
-0.050442428429381285
0.04756808030425846
-0.06696948242938412
0.05172509599998898
-0.02426543920013374
0.038430649133228495
-0.0013182467998387598
-0.1336223845253983
-0.028423579999987698
0.07808306452538992
-0.050358143200113656
-0.08388975913325097
-0.012906766799856924
-0.07900362999999153
0.050701808429373524
-0.05224617030425639
0.05730590842937672
-0.1562147039628849
-0.013239400000028809
0.12916714396290388
-0.08600237042938308
0.020998491304253058
-0.08525070642939132
0.040624542000005245
-0.029569023200130613
0.037374959133234256
0.0002697532001545745
-0.13104479452540396
-0.0264221499999974
0.07810300452539562
-0.05347544320010895
-0.09092197913324737
-0.024396536799865164
-0.095064769999998
0.030324508429381204
-0.07632495030425475
0.030539508429381954
-0.18450451396288234
-0.04161713000003518
0.10227548396290992
-0.10977926842938704
0.001963310304254697
-0.09811785842938717
0.03519220999998741
-0.026542025200138847
0.049578847133228646
0.021998836200150095
-0.09985110652539823
0.013821990000015633
0.12665069452538646
0.002308106799884392
-0.029279139133250788
0.041499493200141485
-0.026619429999981726
0.09957423842937752
-0.008008850304250942
0.09625512842938015
-0.12291176396289116
0.014628270000015294
0.1522401439628976
-0.06673652842937965
0.0377595383042585
-0.06956777542938736
0.05687863200001505
-0.011039637200132204
0.05979986013323441
0.02799328820013424
-0.0968711645254074
0.015063810000005931
0.12741608452539568
0.0037535367998615017
-0.0262202591332472
0.04697372320012974
-0.01822731999999956
0.11110307842938519
0.0065715996957414965
0.1134402984293762
-0.1037608839628886
0.034798959999997554
0.17228086396290015
-0.0481095484293836
0.053608660304250946
-0.05781174842937967
0.06326259999999721
-0.011174430200143961
0.05222605923323801
0.01239267920012975
-0.12076781452539817
-0.017065400000003773
0.08745812452538654
-0.04325600320013595
-0.07908555913324145
-0.010255786799863612
-0.07810175999997192
0.05046628842937797
-0.0528303803042547
0.05731686842938359
-0.15459484396288606
-0.008928805999974709
0.1372373839628913
-0.07319937742938541
0.039312590304254755
-0.0608195684293904
0.07155083000001347
0.007971936799862682
0.08133085913323458
0.05003566320012525
-0.07632800452540733
0.03211716000000926
0.13911091452539223
0.00843012679985956
-0.029905429133247025
0.033903573200128136
-0.04128405799998976
0.07786780752938213
-0.036599806304253066
0.061078128429372616
-0.16425183396285836
-0.03239967000001518
0.10006409396289737
-0.1234229284293964
-0.02265749969573727
-0.13290253842937838
-0.008593019999992992
-0.07786659320012716
-0.007537960866782205
-0.03888005679985164
-0.1623272645253981
-0.04808862999998907
0.06742247452537986
-0.05220045320011733
-0.07717806913324829
0.0019111032001382922
-0.056576979999996224
0.08021213942937927
-0.01617890030425627
0.09943426842936864
-0.10854283396286721
0.03959149999997844
0.18684734396289993
-0.023770688429388988
0.08744029030426437
-0.014970258429385604
0.11446370000000054
0.04753940679987949
0.11733960913322138
0.0824465432001509
-0.047416734525392405
0.05786288000000123
0.1621549245253742
0.029276726799876005
-0.010785569133244695
0.05175624320014142
-0.024259060000014068
0.09443176842937206
-0.02026168130426384
0.07722293442936684
-0.14833671896286468
-0.01690053000000519
0.11484130396288761
-0.10979417842939296
-0.010756279695741014
-0.12326362842937791
-0.0018168799999831939
-0.07455317320013227
-0.008258890866772839
-0.04418109679985358
-0.17257548452539806
-0.06358910999997437
0.04647141452537992
-0.07867148320011928
-0.10910218913323894
-0.035228076799866795
-0.09862784999998643
0.03363425842937975
-0.06679757030426003
0.04538566842937207
-0.165367333962877
-0.01938031000001156
0.12634838396291878
-0.08514259742937634
0.025939618304253592
-0.07591722242938863
0.054679436000010344
-0.010515161200132647
0.061603376133214524
0.029716133200139744
-0.09653425452539557
0.012922909999981821
0.12193474452538915
-0.005658083200125948
-0.03979191913326492
0.029219773200132814
-0.0398141799999929
0.086321672429369
-0.020513146304252057
0.08519953742938868
-0.13195773196286742
0.007975017999982072
0.14818159996292132
-0.06818121542937111
0.03876316130425523
-0.06647709842938096
0.06151163000000388
-0.005535453200140894
0.0654441091332203
0.03306914320014446
-0.09310296452540472
0.016845510000006225
0.12664142452539837
3.977679986955779e-05
-0.03295974913326133
0.03727640320012106
-0.03055604000001073
0.0967067984293767
-0.009073780304259604
0.09765884842938471
-0.11845772396286484
0.02255202999999844
0.16391683396290901
-0.0511458084293729
0.057298980304259034
-0.04616911842938819
0.08389414999998604
0.019234496799862236
0.09288657913322389
0.0633846732001378
-0.059754374525399
0.05330574999999652
0.1661810445253892
0.0424639867998721
0.01192323086674444
0.08409592320012771
0.01755700000000554
0.14535241842936947
0.0391981596957442
0.1444562584293921
-0.07415455396287719
0.06337232999999207
0.20032184396291153
-0.020061768429376875
0.08210185030425365
-0.028217428429384003
0.09461520000000231
0.02254412679985401
0.08870628913322967
0.05153508320013331
-0.07895053452540465
0.02714650000000956
0.13349937452539493
0.003596746799867611
-0.033201279133251965
0.032890293200119464
-0.039882770000000935
0.08126085942937364
-0.032315055304254166
0.06421274842939032
-0.16453375396287465
-0.0390449099999802
0.08366712396290271
-0.15328289842936949
-0.06993003969574471
-0.2013881884293912
-0.10204830000001552
-0.19972016320013936
-0.16056565086677593
-0.22477723679987338
-0.3820291645253954
-0.3016341000000002
-0.21897693547461428
-0.36910006320012984
-0.42036434913325543
-0.36252683679987385
-0.43632709999997327
-0.30809191157061866
-0.4052947503042504
-0.28150971157060445
-0.47238936396288345
-0.29839329999998654
-0.11684253603709124
-0.2850846884293734
-0.1238211496957409
-0.16983680842938706
0.02094273000001211
0.01885693679985243
0.15544994913322063
0.18760246320013135
0.1231132354745919
0.2905628000000129
0.45235006452539495
0.3707815367998565
0.37429275086673897
0.4714261632001144
0.42076019999999753
0.5553058884293706
0.44668054969574206
0.5402669884293846
0.30102093603712254
0.4103863000000298
0.5128412639629079
0.25271451157063396
0.3111519503042515
0.15412581157060923
0.22915629999998288
0.10968683679987745
0.13022054913323344
0.050679713200156636
-0.11808763952539889
-0.045124959999996814
0.0339994145253823
-0.11653328320009987
-0.16664344913324602
-0.10646033679985357
-0.17802749999997486
-0.0488861115706174
-0.1479479503042449
-0.03072721157062641
-0.23311914396289327
-0.07678503000004479
0.08029214396289899
-0.11966867842939541
0.0022326103042645436
-0.08974456842938577
0.048809433000010546
-0.010879800200112392
0.06402567913323
0.03204564320015917
-0.09686124452541157
0.0073495009999821155
0.10875730192539153
-0.028396343200115724
-0.07351418913325164
-0.016296766799850447
-0.09739489000000406
0.01693333842937189
-0.10092266030425248
-0.004878061570637415
-0.2299829939628872
-0.09594085000002842
0.040637293962898016
-0.176966788429388
-0.06881141969574303
-0.17050697842937457
-0.03685320999999593
-0.09638546320012413
-0.016359360866757218
-0.03855047679983613
-0.15378142452540233
-0.032623519999982115
0.08822802452538586
-0.027870286200111016
-0.051342096633236675
0.0271785352001378
-0.033900659999976435
0.09839615842938307
-0.004205600304257859
0.10375184842936783
-0.11307633396288819
0.025409389999953846
0.1625917939628892
-0.05812912842940117
0.0434299103042516
-0.0679349414293853
0.053601498000008976
-0.019889417200121003
0.04494368013323936
0.007000013200148017
-0.123982674525408
-0.01784784000000318
0.08925791452538807
-0.038866813200108485
-0.07224875913324227
-0.0013072667998520401
-0.0674516799999829
0.06233495842937237
-0.040282980304244854
0.06997624642937522
-0.142400368962897
0.0022953409999929503
0.14707177496289525
-0.06507227842939377
0.045535140304262436
-0.05657209842938113
0.0738984000000025
0.00861768679987427
0.08057239913323376
0.04824492320015274
-0.07872067452540579
0.029581340000009854
0.13688124452538242
0.006908206799877834
-0.030407619133245703
0.034655613200136215
-0.039155619999978
0.0813795144293765
-0.03182214730425241
0.06686423842936207
-0.15778203396289092
-0.02565577000002479
0.10662198396287942
-0.11754249842938637
-0.01797030969574296
-0.1298472884293848
-0.007555739999969863
-0.07915423320012258
-0.011371790866751275
-0.04540430679984473
-0.17153802452541145
-0.05989237999998848
0.05320220452539166
-0.06859909320011963
-0.0954869391332329
-0.017996166799860665
-0.07779524999998447
0.057936528429372816
-0.03930136030425781
0.07562688442936946
-0.1329617119629068
0.014529069999991578
0.16102886396288546
-0.05049351842939952
0.05969556030424948
-0.04392476842938066
0.08410122000000093
0.015604036799865655
0.08378096913324311
0.047441863200141585
-0.08364363452540222
0.020778540000024555
0.12472727452539413
-0.007777633200114915
-0.04646834313326593
0.018485349700127593
-0.05396534700000231
0.06950709142937699
-0.03913724730424983
0.06571145842939309
-0.15133370396285722
-0.010346170000003423
0.13180766896292015
-0.08178164142937372
0.028661300104259636
-0.07244922042939139
0.0601189799999831
-0.0020633932001312173
0.0738951091332101
0.04640494320014413
-0.07509617452539971
0.03913102999998074
0.15267184452538848
0.029142406799869222
-0.001616799133269356
0.06998775320013073
0.002609780000002601
0.12939719842936626
0.022198739695744776
0.12656058842938211
-0.09280199396286604
0.04420107999997883
0.1809112539629192
-0.03934349842936849
0.06349401030425206
-0.04583265842938019
0.07830254000001075
0.007806966799857026
0.07586607913322507
0.04115983320014882
-0.08662460452540538
0.022457790000016516
0.13211414452539771
0.006006646799873925
-0.02606595913325656
0.04549135320011897
-0.020826250000003876
0.10795521842937744
0.003467969695737226
0.11095177842938952
-0.10500829396286698
0.035352029999995205
0.1751216539629104
-0.04260872842937948
0.06193958030424667
-0.04652273842939092
0.07745015999998153
0.005684696799860164
0.07132961913321946
0.03303875320013297
-0.09934581552539615
0.004201197999995445
0.10752317352538503
-0.02554587420012354
-0.06499949913326
-0.0010081367998708637
-0.07487662999997624
0.04656887842936673
-0.06482106030424978
0.036450758429394735
-0.1848914939628758
-0.0489774199999998
0.08737204396291645
-0.13263983842937424
-0.029080789695740322
-0.13727540842938676
-0.011848179999990834
-0.08103656320014456
-0.011715310866783957
-0.04520767679986232
-0.17183562452540882
-0.06174385999999152
0.04876684452539425
-0.07656884320013721
-0.1078003191332656
-0.03529838679988262
-0.10051042000000544
0.02960890842937089
-0.07319812030425733
0.036480268429383754
-0.17680358396286977
-0.03322333999998343
0.1103329439629006
-0.10302133842936684
0.006546550304252129
-0.09641538842939046
0.0335123600000027
-0.03191943320014143
0.04034819913322882
0.008896167200140217
-0.1166824115253996
-0.006437741999989853
0.1033632455253886
-0.023561437200134684
-0.05729143713325063
0.011772875200120504
-0.0576835889999778
0.06747503542938207
-0.04093138030426272
0.06262098842938899
-0.1572724639628856
-0.02061354000000117
0.11586430396290665
-0.10453808842937999
-0.0017186496957532701
-0.1110253284293863
0.013141450000007604
-0.05729490320015318
0.010947609133225393
-0.023244806799873466
-0.15019734452540526
-0.039875929999976814
0.0715228645253908
-0.05218708320012998
-0.08096594913325622
-0.005279526799884221
-0.06656617999998427
0.0681689754293722
-0.029413822404251885
0.0859978794293618
-0.12125730396287955
0.028509099999958355
0.1782475939629057
-0.029103058429388824
0.08611173030425757
-0.01177372842938916
0.12255481000000112
0.06074678679987889
0.1357690191332382
0.10613482320017019
-0.01860579452540305
0.09158624000001347
0.20052611452538516
0.0720096767998953
0.03604236086675873
0.10238170320014081
0.029940220000020633
0.15203587842938338
0.040612839695742725
0.14124800842936702
-0.0812634239628805
0.053201909999940615
0.18797373396289688
-0.03368870842940198
0.06812283030425217
-0.04186907842938499
0.08179928000000602
0.010899856799882018
0.07847508913323475
0.04301765320015434
-0.08580772452540869
0.021778269999992408
0.12939271452538736
0.0006506067998978474
-0.03467815913324687
0.03308769320015098
-0.03755954999998584
0.08642183942937265
-0.023207783304246433
0.07897686242937442
-0.14225582196288936
-0.007006636000020279
0.12797475396290292
-0.09401867842939458
0.007042530304263009
-0.10399728842938083
0.018395709999999565
-0.05387573320012272
0.012425489133229162
-0.023941646799840947
-0.15319698452540648
-0.04541629999999456
0.0631307345253817
-0.06382815320011584
-0.0963852091332503
-0.024951936799860776
-0.09105478999998094
0.0382713884293768
-0.06530724030425182
0.04355286842936125
-0.17066263396288328
-0.02820749000003802
0.11399194396288707
-0.10093885842938935
0.006899950304257631
-0.09789095842938453
0.030161780000027203
-0.03710120320011959
0.03351306913324413
0.0007608332001615842
-0.12562366452541215
-0.01558180000001563
0.09471863452539092
-0.03091832320009492
-0.06251918913322413
0.009564083200142362
-0.05602173699998741
0.07378574242937312
-0.029328169604257215
0.07992911842938705
-0.13398164496289913
0.008706619999955612
0.1510219839628715
-0.06402610842940035
0.04328497030426343
-0.06256078842938037
0.063826619999998
-0.005798383200138358
0.06167177613323852
0.024926749200166295
-0.10630936552538131
-0.001938329999979857
0.10195593452535662
-0.030677373200108604
-0.06963696913324094
-0.005062796799869394
-0.07807703999995977
0.044638138429370255
-0.06492783030425975
0.03887850842937389
-0.17923147396287145
-0.039312760000016655
0.1018145539628843
-0.11269867842937453
-0.0030137196957369314
-0.10466504842939812
0.027584460000025634
-0.03469197320012117
0.04139966913322172
0.014275677200150435
-0.10666780452541562
0.008264500999976335
0.12261319452538748
-3.94732001060584e-05
-0.029867039133233162
0.042672123200140764
-0.023790839999988978
0.10387943842936656
-0.0024630403042517623
0.10275394842938129
-0.1157388839629019
0.022186069999988345
0.15990758396292687
-0.0592134084293877
0.04490103030425266
-0.0629787784293799
0.06279086000000779
-0.0058854932001399535
0.0641421991332071
0.03147749320013676
-0.0942649845254061
0.016781720000034844
0.128231114525397
0.0036324567998802515
-0.027338129133247797
0.04476854320012199
-0.02163566000000681
0.10635414842938477
0.00033649969573780816
0.10558986842936814
-0.11335144396285932
0.023367079999981975
0.15894834396289642
-0.0633307184293803
0.03661723330426063
-0.0763706999293836
0.04341866899997859
-0.03193653320012979
0.031004679133214866
-0.00873695679986071
-0.14118902452537524
-0.03614575000000896
0.07035064452536269
-0.05778355320013562
-0.09049258913326459
-0.018077066799860833
-0.08200457999997918
0.05067310842936702
-0.04848676030426254
0.06562778842939393
-0.14266493896284652
0.0061001150000097116
0.15469612396292412
-0.05411091842939346
0.0591291703042581
-0.04126668842938646
0.08985312000000623
0.02407311679985845
0.09436427913319806
0.0592959032001256
-0.07143210452540955
0.03229002000002681
0.13442779452539355
-0.0009920632001309097
-0.043648510133256824
0.0164534632001204
-0.06158816000000838
0.05574595842937822
-0.059352800304256735
0.03899995842936455
-0.1843156039628621
-0.049136749999996655
0.08788293396288666
-0.12996363842936764
-0.022705859695733924
-0.12581258842938314
0.005983099999999762
-0.055751753200131385
0.02184141913322423
-0.0029005567998534668
-0.1206584045253787
-0.0019094629999942636
0.11672342852536625
-0.0013533832001467495
-0.026533899133255216
0.05058377320013056
-0.011589219999980742
0.1199075284293675
0.016765819695724507
0.12438592842938817
-0.0925749539628563
0.04593200000000834
0.1832505839629143
-0.03726537842939922
0.06448806030424734
-0.04665206842938599
0.07508646000000466
0.0017465967998498387
0.06663927913320743
0.028576713200114453
-0.10265885552540598
0.0030250760000415083
0.10943919022539007
-0.019671800200123643
-0.05442007513324746
0.014780173200118804
-0.05354098499998722
0.0735992974293787
-0.032150334304251287
0.07450045642937718
-0.14193111896287186
-0.0017058379999752933
0.1382501189628839
-0.07894674942937342
0.02656558530427153
-0.08054290042938969
0.045172510999998194
-0.024447553200132983
0.043796208133215206
0.008650952200135387
-0.12008226452538215
-0.0123823000000023
0.0955783845253628
-0.032380233200157905
-0.06625893913326426
0.0036341232001289667
-0.0640807399999823
0.0636649084293758
-0.04140192030427005
0.06608858842938241
-0.14935606596285908
-0.007957699999970294
0.13334690096290452
-0.08236419642938657
0.024731795304252766
-0.08082337442938554
0.04638272400000309
-0.02186825220011497
0.0475622641332168
0.01338224320016066
-0.11467002752540943
-0.00654388000003474
0.10161701552537174
-0.026332418200075283
-0.060350362133238106
0.009338375200139122
-0.058542528999988776
0.06916361442937295
-0.03576037930424368
0.07205809542939198
-0.14279719196289653
-0.000535671800090352
0.14188571796287408
-0.07253680442939757
0.035853780304276966
-0.06848567442939543
0.059705233999996624
-0.007946963200126715
0.06152124513322674
0.02662531120018377
-0.10303781852540048
0.002466107999966926
0.10692727252535933
-0.025799271200111704
-0.0655701891332549
-0.0025546567998647705
-0.07786320000001798
0.04187953842937009
-0.07122344030426678
0.02866808842936261
-0.19358469396286887
-0.05783376000001714
0.07930627396289475
-0.13878497842937176
-0.03200387969574179
-0.13572341842939126
-0.004551290000009846
-0.06680510320011655
0.010488069133224004
-0.01420987679982992
-0.13155395452541288
-0.011957469999985933
0.1079732525253902
-0.008366343200088592
-0.03139175913322656
0.04818916320014538
-0.011271309999956236
0.12310021842938829
0.022895399695741205
0.13341240842938404
-0.08081383396289143
0.060203149999942376
0.19974896396287917
-0.018876508429401147
0.0843823303042662
-0.02565694842938008
0.09680614000002916
0.023845626799879546
0.08879798913323393
0.05049477320017044
-0.08124923452538202
0.023720620000015735
0.12925811452537078
-0.0008672332001022805
-0.03674920913324771
0.031173453200148516
-0.0385516499999627
0.08705714842935566
-0.02034898130425915
0.08455601742937308
-0.13376809996286376
0.004440076999970117
0.14228001296290688
-0.07706434902937535
0.02641196430426149
-0.08259832142938293
0.04145558800002269
-0.029474143200133036
0.037962599133217124
0.0027186832001567535
-0.12532222452540145
-0.016033670000028075
0.09449226452537185
-0.029858153200097576
-0.05904498513323777
0.016577024200128906
-0.04445883999999191
0.09078544842936685
-0.00615019030425118
0.10983826842938048
-0.09700628396287933
0.05281527999992964
0.2020750839628545
-0.0064739684293863425
0.10662316030426947
0.005661441570605497
0.13588947000001622
0.06895569679986308
0.13787693913324545
0.10125573320017987
-0.031048494525400358
0.07123676999999633
0.1722039145253595
0.03593045679988441
-0.007348939133236171
0.05264307320012501
-0.024947489999998386
0.093404938429371
-0.020266640304269928
0.07946996642936947
-0.14234095596288843
-0.005813712999997148
0.1321231249628822
-0.08568602542938328
0.019969757304250706
-0.08641480742939738
0.03995798999998702
-0.029699483200126768
0.037090539133224326
-0.0018003267998522206
-0.13699425452541275
-0.039108379999979265
0.05530840452537684
-0.09006004320012928
-0.14506142913327136
-0.09977833679985781
-0.1952374999999821
-0.0977313115706178
-0.23448595030426195
-0.15854161157060906
-0.4044179639628239
-0.2911706999999694
-0.17453123603708312
-0.40995658842939425
-0.3157780496957413
-0.42677978842938613
-0.2969093999999967
-0.3539539632001236
-0.2643594508668065
-0.26899883679987024
-0.3588407645253954
-0.2047169999999776
-0.04384213547462207
-0.11356539320012458
-0.08525258913326142
0.0489836032001383
0.04608236999998868
0.23744958842936362
0.19306934969574602
0.35641148842936154
0.19040743603713073
0.3738747999999901
0.5490127639628943
0.35799531157063147
0.47973685030426666
0.37848471157063207
0.5003479999999968
0.41772203679985676
0.46424434913322177
0.39917896320015284
0.2331989354746057
0.2981796000000013
0.3594685645253656
0.18218553679986174
0.09762025086674019
0.11680091320011869
1.16299999822142e-05
0.08159879842936776
-0.06568595030427708
0.004378508429387348
-0.24288636396284863
-0.12737910000000488
-0.0058670360370779995
-0.23522878842939787
-0.1358345496957521
-0.24317178842940057
-0.11283960000003239
-0.17385566320014714
-0.09378205086679933
-0.11473513679987925
-0.2274145645254067
-0.103123199999997
0.021078994525389347
-0.0916033732001195
-0.11170338913324988
-0.02966695679987818
-0.08744253999995605
0.04782536842937897
-0.052118640304250716
0.05826072842937636
-0.1562372639628642
-0.015573380000022629
0.12364659396290642
-0.0951182584293764
0.008416820304274271
-0.1009347084293894
0.02269680000002936
-0.04859570320012996
0.018555639133210594
-0.01691248679985612
-0.1453413845253829
-0.036536619999972604
0.07334801452537695
-0.05191788320015159
-0.08238697913327102
-0.008593076799868017
-0.07194123999998525
0.06055409842937609
-0.03949355030426946
0.07314701942938377
-0.1371519939628365
0.009312231000050582
0.15552046396289732
-0.0555613484293874
0.05572539030425118
-0.04616210842938524
0.08410989000002289
0.018239376799866147
0.08925083913321222
0.05570547320012585
-0.07274407452539527
0.0339277900000518
0.13955232452537805
0.007966956799871517
-0.0307613491332427
0.03316283320012809
-0.041386153999991716
0.07890690142939431
-0.03396889430426149
0.06566038842936842
-0.15740276396288888
-0.023055409999989892
0.11204372396288174
-0.10878300842937999
-0.005506269695740834
-0.11342117842937405
0.012924549999993679
-0.05469941320015346
0.016775719133222136
-0.014096116799869437
-0.13775052452539419
-0.02446643999999201
0.08929928452535862
-0.03291030320014216
-0.06138332613325949
0.0133531222001155
-0.050312090399998184
0.08053620242937036
-0.02247185330426619
0.08598102842936178
-0.1295668339628612
0.010738969999969629
0.15008214396290243
-0.06830575842937257
0.03559026830425882
-0.07350919242939097
0.050040731489987215
-0.021781127200113545
0.044340289133219406
0.0072926732001763975
-0.1231336745254136
-0.01679206999999034
0.09020864452538949
-0.038265123200082275
-0.07214908913323118
-0.0018138267998515957
-0.06861720999995918
0.060501068429388585
-0.04274347030425822
0.06701452542938324
-0.1457826539628838
-0.0013950350000708474
0.14319666596288685
-0.06897934642940197
0.04183306030426678
-0.05988887842937979
0.07119791000002623
0.006802336799882569
0.07997021913322933
0.04928397320017676
-0.07561226452538275
0.03525183000001132
0.14564825452537006
0.019332416799904044
-0.0137627691332523
0.05605222320015153
-0.012511669999965648
0.11369187842935596
0.006447879695741433
0.11117175842937224
-0.1075238039628561
0.030290879999956888
0.16779759396291452
-0.05184104842937616
0.05125703030426208
-0.05828302842938264
0.06502998000001975
-0.0069705932001300035
0.05888601913321253
0.021330177200163086
-0.10988966602540216
-0.004740365000032485
0.10062518752537115
-0.029924263200091256
-0.06630117913324236
0.0012700032001319202
-0.06851141999999485
0.057522458429367145
-0.04878144030425059
0.05807059842937966
-0.15729295396287168
-0.015060550000083588
0.12785738396286217
-0.0854587234293915
0.02476357130427006
-0.0769845806293942
0.05455391400001328
-0.009004649200133906
0.06528319913324086
0.03588364320018618
-0.0876814045254011
0.02440404999999192
0.13578981452535877
0.010145246799890716
-0.02264353913324076
0.04708448320012803
-0.021966340000001323
0.1033878284293713
-0.004986110304269344
0.09844967842936866
-0.12154397396288077
0.015106909999989622
0.15172683396288986
-0.0683925304293841
0.03472686330425131
-0.07416375642939707
0.05047577839998408
-0.019516799200123745
0.04896381313321973
0.014484041200154098
-0.11329761552541348
-0.004536320999983678
0.10440725652538259
-0.022855902200086185
-0.05656562613323083
0.012865337200145214
-0.05608193999993958
0.06958941742938249
-0.03841871030424732
0.06526963842939013
-0.15469325396289635
-0.018427840000028117
0.1172887539628743
-0.10426519842939508
-0.003039279695722326
-0.11422778842938588
0.007762660000045822
-0.0651085432001206
0.0004699691332296571
-0.03663167679982714
-0.16659150452538965
-0.05937338999998201
0.04884279452537019
-0.07813074320011826
-0.11029675913325196
-0.03804731679985868
-0.10286333999996879
0.02823054842934987
-0.07311714030426607
0.038392738429360744
-0.17284194396286867
-0.027156040000023116
0.11842257396290198
-0.09310327842938768
0.01802323030425457
-0.08375159442936767
0.04692921799999388
-0.018200476590117483
0.05395748613323126
0.02209033020015918
-0.10415632052539502
0.0052832510000196545
0.11426657052537129
-0.01333992620013195
-0.04743247813326442
0.021685440200144446
-0.04716787999997525
0.07923316642936808
-0.027234520304276498
0.0789773844293725
-0.13756563096289126
0.0030973299999818805
0.14414422496292964
-0.07127113742938028
0.03673372230426255
-0.06735500942940029
0.06187772999996467
-0.003839003200107327
0.06854499913324119
0.0376269832001271
-0.08703679452540743
0.024471949999975845
0.13587013452535185
0.010878436799886811
-0.020577719133254478
0.05113795320016163
-0.015307109999981722
0.11321118842937927
0.008476619695749886
0.11591039842939396
-0.09986028396289331
0.04108448999996414
0.18191802396291407
-0.03422526842939126
0.07246414030426218
-0.0334087784293891
0.09358677000002641
0.02520319679986604
0.0944812991332468
0.05995427320015021
-0.06873267452538359
0.038342299999977514
0.1449076645253827
0.014685486799854729
-0.022410379133275614
0.043337993200157736
-0.029380800000010924
0.09261081842937641
-0.018813850304268874
0.08189817242936456
-0.14047830726290886
-0.005936530999962648
0.12882479396290497
-0.09287609842936548
0.009009490304243448
-0.10073536842938494
0.023399130000019953
-0.0467343732001238
0.022036159133248395
-0.011612006799867833
-0.137981214525396
-0.02723191000004356
0.08428503452541354
-0.03979228320012216
-0.06967052913324728
0.004199593200138137
-0.05976555199994918
0.07135297142936485
-0.0308402453042609
0.07890277942939036
-0.13491846796293153
0.007437014999996876
0.14903971496288942
-0.06701019542939919
0.03913157830424707
-0.06789992642937376
0.057396188999990744
-0.01311307320012067
0.053783857133258325
0.01686368820013688
-0.1140900555253949
-0.008957104000041894
0.09616439452539415
-0.03482729320013585
-0.07181809913326409
-0.005067766799858733
-0.07582403999995566
0.04909468842936198
-0.058463510304265595
0.047017068429360986
-0.1698853339629038
-0.029310639999975387
0.11186558396291711
-0.10322527842937339
0.005281250304246709
-0.09809079842940639
0.03200854999998427
-0.03271581320011051
0.04078007913324152
0.011077520200123196
-0.11222811852541434
0.0007372141000052473
0.11366254752539523
-0.009766356200135481
-0.03968648913325415
0.03352464320015142
-0.031527189999984856
0.09822380842937317
-0.005509180304257625
0.10260650842938243
-0.11285697396294914
0.027971179999984132
0.16822481396289451
-0.04899158842940278
0.056123760304254686
-0.051838778429388166
0.07259253000002328
0.0012247467998855906
0.06718596913318396
0.029154743200146303
-0.10315071952538347
0.0003303567000069135
0.10346413352537638
-0.02985963320014916
-0.06950641913325689
-0.00566390679984545
-0.07952133000001406
0.04219690842937733
-0.06853572030425797
0.033942138429371445
-0.18561056396284142
-0.047223679999942654
0.09233954396292221
-0.12368866842937698
-0.015378129695724656
-0.11812987842939104
0.013363270000016816
-0.04925349320012701
0.02696918913318955
0.00046192320010986915
-0.11933144452540288
-0.002765059000036895
0.11363689752536396
-0.006644953200126062
-0.033941779133246947
0.04115896320013494
-0.022896720000043266
0.10685365842938851
0.0020952596957499944
0.10824077842937885
-0.11012962396281374
0.027011890000039607
0.16299187396286985
-0.05881576842939232
0.04177625030425659
-0.07040390642937985
0.05046545950001034
-0.023503306200130893
0.04111445913319113
0.003296423200132967
-0.1270980945254018
-0.01989073000001249
0.08880467452539484
-0.03719813320015815
-0.06796187913324536
0.006076773200131048
-0.05661266999995879
0.0768545159393629
-0.02202064830427309
0.09183914842938626
-0.11728724396283634
0.030101950000044606
0.17682847396290458
-0.03426811842938491
0.07637861030426021
-0.026829658429412484
0.10140242999998114
0.03279347679987927
0.10045632913318268
0.06312066320010089
-0.06939290452541422
0.03314492999998918
0.1347862545253754
-0.00038459320013503953
-0.042030366133253824
0.019880343200148233
-0.05559870599998799
0.06498002842936708
-0.046317730304246726
0.05617454842938931
-0.16274800396280162
-0.02312948999997313
0.11817809396288197
-0.0957742684293775
0.014654770304259865
-0.08611147742939426
0.04699706200006562
-0.014602463200117606
0.061795949133184286
0.03435312320014239
-0.08757915452539036
0.02553802000001358
0.13715170452536946
0.010774976799828542
-0.023830429133256562
0.04297887320013731
-0.030129180000017197
0.09008519842937122
-0.024362451304283883
0.07232221042935992
-0.15487974396285398
-0.02563619999992266
0.10366456396290262
-0.1233350484293701
-0.02621440969571376
-0.13997558842939012
-0.018823499999963578
-0.09071114320014424
-0.022325310866787386
-0.05487880679989403
-0.17874230452539575
-0.06414391000000749
0.05242789452536408
-0.06557379320012996
-0.08858294913322823
-0.0073782567998752595
-0.06385504000004641
0.07460862442938947
-0.020658407304257505
0.09534391842940412
-0.11316222396283332
0.0333990100000596
0.17799242396286433
-0.036317848429399495
0.07037096030424908
-0.03729590842938593
0.08637522000000722
0.013454316799858888
0.07739344913320986
0.03728408320011068
-0.09689485452540167
0.00531843900001691
0.10808968652538792
-0.024463387200047336
-0.06202707913326343
0.005212533200127866
-0.06388002999996192
0.06388621842939526
-0.03972106030425787
0.07063967342937473
-0.14063824046285592
0.006084883999882699
0.153676043962885
-0.05504871842939642
0.05937806030427112
-0.03876874842938012
0.09558844000002348
0.03392846679987608
0.10907612913320142
0.07938111320019331
-0.04557739452542109
0.06408204000001859
0.17211638452536848
0.04231185679992058
0.00466445086676491
0.06907400320014506
-0.00555905999999113
0.1141307584293556
0.00016061969572736534
0.0981816884293778
-0.12689623396282118
0.005071103999910435
0.13744960296286238
-0.08645207442938901
0.01334260030427074
-0.09844336842940572
0.02363803000006249
-0.04864819320012079
0.017768459133203005
-0.018531456799801983
-0.14793811452538322
-0.04067604999995702
0.06688570452537662
-0.06156649320007471
-0.0961058891332335
-0.02708581679986587
-0.09596893000002032
0.03033404842937383
-0.07632826030427298
0.029618258429348412
-0.18711380396287355
-0.04660463000015278
0.09438586396288302
-0.1208651284293816
-0.012341019695739662
-0.11536081842938752
0.015523830000033281
-0.047916763200147414
0.027380629133231346
-3.90967997972759e-05
-0.12064237452540265
-0.004645385999978091
0.11150760852535718
-0.008676649200074339
-0.0355539491332095
0.04028329320012155
-0.02272906000000407
0.10831830842937801
0.005002329695753385
0.1125601984293926
-0.10451357396285288
0.033684069999943174
0.17036043396284475
-0.051247148429411
0.04888230030425997
-0.06447911842939741
0.05441298000000408
-0.0223650022001443
0.038606489133191806
-0.0036635867998293555
-0.13923803452540856
-0.03784321999999916
0.06453993452538101
-0.06808817320006964
-0.1055286491332447
-0.038017286799875316
-0.10687084999996506
0.021011118429382143
-0.08262182030424697
0.027602788429363215
-0.18387495396286146
-0.03744136000007457
0.1098095039628654
-0.09920765842937115
0.015128500304286351
-0.08284955542937919
0.05198723000002034
-0.008826534200127103
0.06761393913322014
0.03978181320020781
-0.08281734452542801
0.029692080000047978
0.14103381452537564
0.014974986799898289
-0.01845647913321638
0.05044217320012782
-0.019480449999994265
0.10506762842935655
-0.003943960304261741
0.09915551842937062
-0.12090474396284079
0.016031169999907693
0.1533197539628428
-0.06572278842940053
0.03893648930424485
-0.0680725344294048
0.05878658700005935
-0.00868133920013803
0.06260601913322174
0.03123234320017572
-0.09328322452539012
0.018883710000072385
0.1313398945253697
0.007681476799939788
-0.022305719133214767
0.05085583320013094
-0.014342379999977999
0.11508735842937476
0.010841039695758926
0.1183121084293737
-0.09793875396289313
0.04199771999988996
0.18133760396296456
-0.03666713842939313
0.06800604030427124
-0.03992431842940065
0.08516229000000741
0.015209166799849395
0.08347587913321328
0.04875706320018043
-0.07919147452540899
0.029689880000005834
0.13920786452535028
0.013120456799903368
-0.01866632913330913
0.053441173200148136
-0.012005480000007208
0.11797650842936487
0.015005239695758565
0.1243061284293811
-0.08964984396285844
0.0528592699999859
0.19485083396298525
-0.020663268429385727
0.08602220030427088
-0.020443708429396468
0.10537578000002368
0.03529482679985253
0.10243671913321054
0.06539316320018514
-0.06586125452542839
0.03877380000003024
0.14320301452538817
0.011240956799908077
-0.027280789133285143
0.03768352320010743
-0.035184179999968195
0.08724596842938309
-0.02337062630425185
0.07801316842935171
-0.14380189096288098
-0.009194154000077313
0.12477888396293291
-0.09903031842938266
-0.0012286096957395444
-0.11718382842937826
-0.0017987100000055323
-0.08347649320014434
-0.02920286086676114
-0.0803458267998145
-0.22706856452539054
-0.13938419999992263
-0.05329053547463125
-0.20451526320008723
-0.2622378491332835
-0.21627623679987537
-0.3074319999999519
-0.20191131157064252
-0.3269515503042522
-0.2357338115706041
-0.46312316396286035
-0.32869810000004956
-0.18879003603703243
-0.3995833884294121
-0.28034664969574424
-0.36662938842938814
-0.2132324000000347
-0.24873536320014122
-0.14042135086679633
-0.13010073679984657
-0.2092656645254397
-0.04909579999994369
0.1129647595253628
0.039386266799917496
0.05870515086670799
0.17901566320012774
0.15783710000001885
0.32717988842936163
0.25769104969576984
0.3936759884293622
0.19883653603713108
0.35306029999993266
0.499493163962945
0.28125251157063214
0.37830215030428216
0.2555609115706003
0.35979190000004974
0.26388213679984623
0.301910249133232
0.2335527632001949
0.0695003354745841
0.14132290000003525
0.21401926452535744
0.05234083679988105
-0.012888309133263678
0.028741313200130892
-0.06346515000001034
0.0439876684293658
-0.07693781030426734
0.019150808429369573
-0.20316193396287802
-0.06459546000001684
0.07745090396292241
-0.13442320842939726
-0.021028779695755034
-0.11816990842939554
0.018534130000020535
-0.03987617320016471
0.03916585913322926
0.013815480200162832
-0.10639658452537802
0.007945351000059641
0.12038719452538127
-0.005300073200077441
-0.03900564913326642
0.029268253200104247
-0.04162615299999407
0.08173995942938402
-0.02845441400426769
0.07369141142937699
-0.1468196949629006
-0.009716056000034582
0.12845302396292735
-0.08894769842938549
0.018096510304271347
-0.08579581642939138
0.04481526299999133
-0.018414106100117778
0.0573791411332208
0.030472393200126416
-0.08980792452539742
0.026135119999924884
0.14169205452536185
0.02022069679989048
-0.00877423913327488
0.0641271332001512
-0.0026507399999550693
0.12386630842935842
0.015374429695758668
0.11726272842938873
-0.10569446396286587
0.026591539999993155
0.15754215396290475
-0.06938523142938244
0.026027070304266646
-0.09118173842937319
0.0248267500000076
-0.053800473200114635
0.0063779091332223994
-0.035695416799832076
-0.17005816452540334
-0.0666192400000507
0.03845716452536996
-0.09105273320014161
-0.12526281913327325
-0.05453841679985972
-0.12049640999998426
0.009727768429362571
-0.09234068030428283
0.018415478429359346
-0.1935867239628885
-0.04885330000002459
0.09548944396292541
-0.11763148842937503
-0.00855854969577051
-0.11276539842939877
0.015024209999978395
-0.053463533200111504
0.014900989133250726
-0.021146306799864165
-0.15183727452540874
-0.047078540000003576
0.05706175452539378
-0.07542893320010445
-0.11427345913324495
-0.04965448679984254
-0.122670009999968
9.678429380780007e-06
-0.10958860030425646
-0.005705561570600801
-0.22370716396294082
-0.08358243000004233
0.05789862396291688
-0.15602781842940444
-0.045360009695744136
-0.14566873842939462
-0.011611069999982591
-0.07153647320013813
0.00753784913323792
-0.01584735679985945
-0.1323611245253849
-0.012276690000024643
0.10792851852537438
-0.008208511200136518
-0.030921829133284482
0.04911209320016059
-0.009599829999997207
0.1259083984293709
0.027292369695743196
0.1399188984293698
-0.07179902396290612
0.07212122000005362
0.2148991839629078
-0.0002511984293602221
0.1066587703042555
0.0002249715706095501
0.12617546000003366
0.05649284679987906
0.12444002913323954
0.08882353320014091
-0.04063044452540433
0.06628968999995428
0.17349069452541224
0.04480286679986818
0.01020405086674385
0.07936117320013396
0.010978760000041797
0.1381536184293891
0.03258588969573277
0.1395545884293772
-0.0763977339629287
0.06449737999999042
0.20528070396288517
-0.01104111842939394
0.09519723030424077
-0.011414778429372233
0.11445069000000446
0.04450877679986813
0.11180099913326787
0.07487067320014562
-0.05649182452539621
0.047681299999978694
0.15120929452539283
0.017920806799872888
-0.022176599133254548
0.04082135320013709
-0.03433255999994193
0.0856053414293635
-0.027447800304271918
0.07205756342938462
-0.15104767396290805
-0.016826379999981853
0.11795172396291989
-0.10348590842938654
-0.0012189496957596135
-0.11053426842941189
0.013924749999975256
-0.056108373200114706
0.01244175913317349
-0.021828926799886458
-0.14925214452541563
-0.04003999000001964
0.06945857452537396
-0.057064593200126745
-0.08970875913326301
-0.018813566799845725
-0.08584952999999387
0.04223949842936766
-0.06277313030424556
0.044563958429387686
-0.17110956396278626
-0.029935189999999594
0.11125294396289728
-0.10436204842937913
0.003132110304261044
-0.10164689842939367
0.02673960000005974
-0.03993227320011157
0.03143276913317508
-0.0005375167998449594
-0.12624567452539182
-0.01577230999999524
0.09459055452538208
-0.031451423200158826
-0.06397994913326575
0.006582903200143361
-0.06112352000002308
0.06600174842937181
-0.0402505103042827
0.06560433842935831
-0.15182676396283862
-0.012575609999949118
0.12659708396291797
-0.09106076842937173
0.014440940304250615
-0.09221888842938952
0.03450761000003053
-0.0335164732001382
0.03687287913319908
0.004345623200118599
-0.12142577452539718
-0.010504100000016314
0.10081737052536266
-0.023796713200117326
-0.05453702213323743
0.018140110060130766
-0.04726346300000681
0.08221679142939005
-0.021793281304256326
0.08597503442940249
-0.12999813696281798
0.010077400000033142
0.14930171096287967
-0.06919159242940545
0.03450333830425026
-0.07497490742938537
0.04792781600000133
-0.024866665200135057
0.03993410913316389
0.0012286932001233097
-0.13114256452540313
-0.026991330000037384
0.07765321452538648
-0.053227903200149404
-0.0894280491332726
-0.0211629567998661
-0.08967799999996781
0.038198588429350394
-0.06571449030425669
0.04402814842937311
-0.1680676139628265
-0.02227702999993912
0.12437859396290031
-0.08514831542936127
0.028773485804272293
-0.06951656242941097
0.0651361300000176
0.004255346799882126
0.0807000191331922
0.052865043200128026
-0.06979023452542253
0.04256232000000976
0.15359554452536706
0.027017446799855294
-0.007213879133244283
0.060592763200137026
-0.010736449999997011
0.1120897284293686
0.001055099695728548
0.10185553842937617
-0.12070830396280587
0.013568299999997663
0.14810835596287772
-0.07369072042939065
0.028295909604271932
-0.08119385842939274
0.043439487000056606
-0.025935393200128797
0.04382680313319382
0.011362204200132734
-0.11374233052538467
-0.0016686379999658397
0.11118025452537518
-0.011624248200144328
-0.04035799913324703
0.03445600320014016
-0.028786740000026217
0.10281452842937276
0.0008497096957281909
0.11055479842938357
-0.1035446439628582
0.038332280000093616
0.17929788396291244
-0.03751277842938324
0.0677638303042615
-0.040161098429402645
0.08426239000002739
0.012938056799858624
0.07908682913322214
0.041452903200096314
-0.09013284452540407
0.014436269999967614
0.11903874452535576
-0.012481183200061703
-0.050112430133255496
0.015892860200127583
-0.05577944200000995
0.06799935342937857
-0.040985750304245436
0.06269036842939099
-0.15636473396283757
-0.01832929000008329
0.11991668396286004
-0.09848442842941263
0.006347800304261155
-0.10096769842939683
0.02495666000004367
-0.04410400320013824
0.02499265913318263
-0.009047266799821055
-0.13650491452541003
-0.027436710000007983
0.08193282452537959
-0.044596963200056995
-0.07701965913325388
-0.00564175679986929
-0.07184076999997094
0.05747234842938273
-0.045944330304282584
0.06330713842936159
-0.15022604396284608
-0.006745079000101028
0.13682016096288072
-0.07647511502937278
0.03312592630428318
-0.06988432742937861
0.059843020000014464
-0.005996743200121066
0.06561473913321095
0.03323368320022044
-0.09354390452541539
0.015235320000039158
0.12333457452537422
-0.005470943200089071
-0.04117800913322556
0.025919156200133846
-0.045405740000000146
0.07807819242935712
-0.03171289730426055
0.07082920142936901
-0.14958405896282542
-0.012909980000118768
0.12414347396285813
-0.09513546842940215
0.009275820304246035
-0.09796438842940422
0.028634410000053467
-0.03912391320013199
0.03187613913321255
0.00026934320018837457
-0.12434204452539156
-0.012108619999936438
0.10061568652536827
-0.022533764200047567
-0.05175256346322396
0.022510425200136977
-0.04125165599998388
0.08993877842937535
-0.012271550304260914
0.09739260842937206
-0.1165192439628778
0.025802289999863493
0.16746516396289282
-0.04843310842939476
0.057901190304272404
-0.048895748429400046
0.07665245000002427
0.006366876799855432
0.07337749913320409
0.03633560320019308
-0.09502618452541099
0.009335136999997017
0.11325572352534886
-0.019430177200083998
-0.058670616133236764
0.005278383200124404
-0.06882880000001308
0.05222569842936545
-0.059637510304234545
0.04121464842937947
-0.1805126839628431
-0.04483226000004056
0.09152854396284048
-0.12811651842938734
-0.02367880969572795
-0.13047796842939588
-0.003044159999959467
-0.06956194320014145
0.003129199133201345
-0.026268536799802216
-0.14815040452541692
-0.03269896999997858
0.08370271452538673
-0.035338223200079295
-0.06005178413323517
0.01899854600011347
-0.03979861999997408
0.09641752842938367
-0.0008305303042716976
0.11361107842935007
-0.09590646396286567
0.05032578999989623
0.19531177396286115
-0.017940198429384296
0.09031992030426161
-0.015381878429377667
0.11049089000001133
0.0398155467998617
0.10580253913322968
0.06724304320019814
-0.06605059452542228
0.036193900000068564
0.13800422452536731
0.003390116799925409
-0.03742136913320683
0.025453135200130664
-0.04905755209995781
0.07236800642935806
-0.038319385304251045
0.06445501842939426
-0.15461859396284502
-0.015645010000076037
0.12450680396298291
-0.09107165842941367
0.01737213030425693
-0.08565705542941733
0.04504112799995938
-0.018964782100135174
0.05521769213319448
0.025975539200166063
-0.09716939452544114
0.01548396000004749
0.1275101945253614
0.002516536799930129
-0.029689869133301197
0.040553123200133795
-0.028146109999987012
0.09734272842936223
-0.011145820304229007
0.09189996842936055
-0.12874751396285355
0.0069589789999517
0.14234603096300358
-0.07926592342936949
0.02216173730425656
-0.08857995842941316
0.034103550000043864
-0.0378852732001618
0.028648369133196083
-0.007600976799792443
-0.1369124145254173
-0.029355109999928106
0.07878733452535601
-0.048789233200106294
-0.08222492913327287
-0.011913026799863075
-0.07935533000001621
0.04844206842938044
-0.056834600304239424
0.05015901842936795
-0.16601931396290592
-0.025594460000088776
0.11454149396298097
-0.10245958842936208
0.0033128703042728837
-0.10351083842939496
0.02252482000001466
-0.04674885320014463
0.02186434913322006
-0.012853806799824521
-0.14120429452537944
-0.03316073999994918
0.07510076452537981
-0.0525714932001016
-0.08608010913330234
-0.015789636799889716
-0.08300636999993175
0.04540407842937056
-0.0587339503042398
0.05010551842941213
-0.163567383962842
-0.019874360000061042
0.12431576396294267
-0.08785969842943259
0.023481984304272514
-0.0771853299293908
0.055535240999985455
-0.006640963200141488
0.0693139791332116
0.04195487320013905
-0.0792058445254421
0.035721260000052484
0.15039988452540365
0.02846262679993991
-0.000286449133310801
0.07367426320011343
0.008957390000039055
0.13861308842934494
0.03433522969575985
0.14146042842934597
-0.07546820396285055
0.0634972999999667
0.2015594939629201
-0.01809578842938841
0.08444955030426782
-0.026132438429372587
0.09577272000000173
0.022097926799861632
0.08609440913323994
0.04656603320021735
-0.08667425452544804
0.016510040000031416
0.12003063452532527
-0.012209205200092173
-0.05010782513328246
0.01611723220013061
-0.05482631299999015
0.07021784242936317
-0.03692944330428165
0.06918596442934903
-0.14681886896287313
-0.005170086000051044
0.13719566196289748
-0.076662098129381
0.03300107130423067
-0.06928097342941225
0.06173497000004073
-0.002326853200179047
0.0714864391332148
0.04162714320018526
-0.08230206452541018
0.029506310000101295
0.1407045045253491
0.014946306799908198
-0.017943869133254145
0.05173269320013375
-0.017379879999973875
0.10784936842938136
-0.0007847403042820014
0.10214561842939324
-0.1186165639629255
0.01692010999997669
0.15202147396297547
-0.07006931042940603
0.03058393430428378
-0.08124362842940808
0.03999306000001152
-0.0338272132001321
0.030479279133202006
-0.008399356799846814
-0.14067080452538633
-0.03636938000007894
0.06828453452537293
-0.06292899320012388
-0.10005069913326695
-0.03333838679981932
-0.10421221000000308
0.020413188429385533
-0.0876768303042289
0.016959898429368174
-0.2010136039628475
-0.061800880000018314
0.0777250439629231
-0.13927371842936184
-0.03290414969571659
-0.13852572842938987
-0.010776429999972206
-0.07790971320012897
-0.00682574086676966
-0.03887952679984645
-0.1644282045253625
-0.05359501000000906
0.05732217452541082
-0.06795392320015597
-0.09948203913329207
-0.02767418679985999
-0.09393470999996409
0.034806798429345885
-0.06968052030426605
0.03807411842937558
-0.17740400396287012
-0.03621381000003605
0.10482107396290051
-0.11109470842935878
-0.003971649695758084
-0.10925928842937166
0.01856768999999859
-0.04864434320011179
0.02229670913325867
-0.009822046799878536
-0.1354045845254409
-0.024416190000030133
0.08693966452540487
-0.037534683200077676
-0.06779354913326374
0.005690993200143128
-0.05841513299994781
0.07297372442936409
-0.028382188004270753
0.08297401642941979
-0.12855651396289272
0.016880719999991686
0.16238024396289197
-0.04895817842942496
0.06273426030424156
-0.03815070842939726
0.09382400999996937
0.03040484679989134
0.10467288913325021
0.07529880320016297
-0.04820835452541708
0.06418162999997154
0.1762568945253422
0.051802976799885894
0.020845490866727788
0.09297141320014626
0.026964770000022988
0.15601094842936825
0.05194046969572889
0.16024578842934928
-0.05451226396293102
0.08765606000001942
0.22994662396295584
0.01550069157061923
0.12414179030424122
0.020406811570592848
0.14974200000005386
0.08388173679986471
0.15582624913322074
0.12404616320016766
-0.001856364525393256
0.10801879999995047
0.21735526452538007
0.08978983679985382
0.055085250866751784
0.12298636320016344
0.05215379999999378
0.17572174842938648
0.06544804969574519
0.16664105842935667
-0.055780653962953605
0.07816735999997895
0.21175869396290353
-0.01182557842937336
0.0871236503042575
-0.026356738429388932
0.09319264000002465
0.01759088679985379
0.07985155913324907
0.03825705320013126
-0.09720143452535537
0.0032049230000203424
0.10307872852540391
-0.03406070320014148
-0.07869852913327335
-0.020992646799863183
-0.10262321999992174
0.009362898429376584
-0.11333233030425516
-0.025320711570599133
-0.2617498639628897
-0.14278939999999332
-0.025105136037105014
-0.2651152884293703
-0.18222574969574717
-0.3113416884293848
-0.20663810000000454
-0.295778863200115
-0.24480335086684535
-0.29383603679990083
-0.4327169645254478
-0.3310561000000462
-0.22463573547461496
-0.3490498632001
-0.37346324913328177
-0.2882661367998601
-0.3349641999999737
-0.18067851157064901
-0.2538398503042599
-0.10923411157059171
-0.28317936396276794
-0.09672653999996558
0.0922803439628724
-0.07408656342939969
0.08282691030427347
0.02621511157060369
0.2004352000000117
0.17618213679988817
0.285396449133183
0.28547936320017747
0.18508943547457601
0.31393600000000094
0.4355108645254229
0.3132471367998636
0.2768382508667465
0.33599626320012904
0.2503669999999971
0.35389988842936915
0.219118549695703
0.29229638842933775
0.03894653603720949
0.14053030000001668
0.24148146396293632
-0.013940198429392273
0.05522686030423632
-0.08549437342940622
0.010311230000050728
-0.08487077320012276
-0.03739413086678865
-0.08821763679985462
-0.22743846452538607
-0.1253597000000201
-0.01851233547466949
-0.14345026320013168
-0.17065644913322947
-0.09084393679983974
-0.1464079399999866
-0.005036961570612591
-0.09559140030424391
0.02672761842938194
-0.17388126396284287
-0.018393969999978322
0.13581300996292778
-0.06842682342938489
0.04854733030423596
-0.04868683842940205
0.08517997000002152
0.021964516799850616
0.0949126991331451
0.06289259320010895
-0.06420853452536228
0.043924170000004266
0.15134664452535432
0.02206374679983623
-0.013725849133291404
0.05375752320013363
-0.016522380000015824
0.10870264842936345
0.0012591196957557338
0.10657001842938935
-0.11086776396285142
0.028864140000049412
0.16886233396287542
-0.04784668842934502
0.058440350304289054
-0.047811558429383824
0.0787499400000378
0.009825246799881848
0.07844221913317341
0.043158603200113665
-0.08633504452545472
0.019914069999983196
0.12570600452537817
-0.005133753200122281
-0.042575214133263074
0.02321764120012271
-0.04901615289997682
0.0739474124293519
-0.03598852930428142
0.06672468842939676
-0.1531576239627875
-0.015710749999968323
0.1222646339628528
-0.09604428842941119
0.00924404030428436
-0.09724019842939538
0.02985885000000858
-0.03774965320012908
0.032967599133201755
0.0005585532001551596
-0.1253668345254168
-0.014994029999969662
0.09533087452541603
-0.030717883200117563
-0.06326557913323475
0.007326273200125841
-0.060363970000006026
0.0667463784293701
-0.0395588403042861
0.06618034842936303
-0.1513847939628101
-0.01233435999994059
0.12654357396293078
-0.0915265784294038
0.013415610304247216
-0.09395244842941934
0.03188110000004759
-0.03724152320012595
0.03183845913323008
-0.002193856799876919
-0.12963895452539298
-0.020527559999990733
0.08889428452532358
-0.037641433200034935
-0.07023704913324755
0.000756843200157082
-0.06607128999998975
0.062329178429375943
-0.042337540304233014
0.06525099842937042
-0.15033816396286245
-0.009309057000117492
0.13142735296287844
-0.08504613442940073
0.021058040304242513
-0.08568551942938374
0.040117798000063855
-0.02976996320015258
0.03775928913316382
0.0013804232002013715
-0.1292299145253692
-0.024064599999966328
0.08070651452534741
-0.05103967320007136
-0.08914869913326834
-0.023876266799839792
-0.09642082000001896
0.02648602842938011
-0.08316424030427452
0.0203596284293735
-0.19824319396284124
-0.0589494100001807
0.08151704396285582
-0.13355209842935656
-0.02411541969570439
-0.12560669842942507
0.007369050000034648
-0.05348697320012134
0.024829289133192146
0.0008231332002060776
-0.1161036225254178
0.0037394900000126
0.1238286645253853
0.007614186799896557
-0.015290619133240022
0.06441953320014929
0.005135639999951834
0.1397277084293702
0.039746499695725135
0.15042683842938087
-0.06380998396283684
0.07696181999980156
0.21595334396283322
-0.0035992084294227122
0.09833953030425846
-0.013507008429406844
0.10667331000000543
0.03098837679986773
0.09286894913322047
0.051335663200174006
-0.08369687452539398
0.01811865999999153
0.12083525452540914
-0.011543236200025148
-0.04883449713322038
0.018721775300092895
-0.0501500307000319
0.07766092052938842
-0.02611946130427522
0.08382056642935151
-0.12806788396285945
0.017828569999965717
0.1644027839629112
-0.0454730784294153
0.0677346203042581
-0.031593788429402685
0.10165798999997624
0.039018796799870865
0.113364869133212
0.08309045320021549
-0.042188424525429674
0.06740434999992498
0.17561135452534643
0.046195896799942765
0.009121970866771176
0.07424802320012414
0.000418080000075316
0.1209440384293926
0.007792889695777891
0.1065668384293589
-0.11784567396286798
0.014672669999993454
0.1474746539628886
-0.07613930742937111
0.023791957304257743
-0.08795044842941258
0.03410901999999251
-0.038233023200126004
0.028106669133186886
-0.008321496799779799
-0.13782397452540585
-0.030617629999868716
0.07692600452538434
-0.05155385320008932
-0.08625135913325395
-0.01749607679988679
-0.08682508999995389
0.038778068429351255
-0.06894359030425926
0.03542439842936631
-0.18341894396289057
-0.04563948000011524
0.091951183962866
-0.1274062984293637
-0.023718169695725946
-0.13224413842939436
-0.00750030999990027
-0.07763052320010881
-0.009426030866784778
-0.04411941679981188
-0.17200148452545444
-0.06311730999988978
0.04628883452534864
-0.0800131532000846
-0.11203152913322564
-0.040187946799883675
-0.10590738999993762
0.023850948429341358
-0.07917350030424296
0.030456038429410512
-0.1827854539628267
-0.039076520000087496
0.10468919396295802
-0.10835282842942986
0.0017012903042736942
-0.10063907842939021
0.030074909999979575
-0.034374273200165215
0.039130729133206754
0.009269316200156046
-0.11437295352544358
-0.0018032139999563318
0.11073645052537245
-0.013015959200051788
-0.043123154133315654
0.029968393200119472
-0.03507633999996682
0.09482525842934553
-0.008598290304243316
0.10003715842934433
-0.11478403396283521
0.026838519999940236
0.16804839396293542
-0.048025158429385685
0.05848405030427334
-0.04787589842937199
0.07840921999999584
0.00917385679983792
0.0775756991332264
0.04233039320023433
-0.08686702452541974
0.020058450000022595
0.12695972452532384
-0.002317083200083874
-0.03771958913329601
0.03047607320013665
-0.038994129999996026
0.08704184842936374
-0.019588508304280466
0.08658260442935174
-0.1298355739628578
0.011020209999922499
0.1522737439629993
-0.06296994842938698
0.04508904030423619
-0.059013968429381884
0.07005503999996664
0.003980916799826994
0.07577198913320127
0.043959243200193565
-0.08186420452538186
0.028172190000092474
0.13776608452534767
0.010629696799920842
-0.02331616913326767
0.04561273320013978
-0.023901669999979763
0.10130342842938195
-0.006923620304227364
0.09693472842939593
-0.1224019539628804
0.015064569999859282
0.1526001139629908
-0.06654261842937957
0.037594311304280606
-0.07028349142937772
0.055319039999937425
-0.013782824200141772
0.05552105813319281
0.021832258200161478
-0.10519249552541757
0.004315770000025929
0.1140263785253715
-0.01240767520011124
-0.04516766713332959
0.025341582200142907
-0.042361309000008965
0.08473963042935802
-0.02164682630422773
0.08385457442939465
-0.13414853496280243
0.0042077389998870195
0.1421064569629682
-0.07723416472940896
0.026160321304280247
-0.08298727742941904
0.04087048000009012
-0.030362923200138645
0.036557139133221145
0.0004261732001661911
-0.12897061452539374
-0.021594569999995143
0.08637772452540937
-0.04124349320006974
-0.07446846913330127
-0.0036360767998680106
-0.07015803000003817
0.059004528429376216
-0.04445118030426487
0.06480349842932848
-0.14874426896288456
-0.005366232999994295
0.13795923996294562
-0.07573862542940155
0.03329205230424309
-0.07044879042940083
0.05838880000006092
-0.008470884200149558
0.06204786913324947
0.02858498320020769
-0.09918880652544235
0.008742067999983788
0.1162061865253467
-0.01295174920006503
-0.048659786133272945
0.018838818600103693
-0.0516624090000219
0.07307003242939444
-0.03506709630426524
0.06948158942937267
-0.14860902496290715
-0.00937486599996656
0.13038760296287755
-0.08614756842942224
0.02088632830424274
-0.08393626842939667
0.044762868000031715
-0.021311775200132378
0.05084709623318756
0.019746102200175607
-0.10504587552541853
0.006289845999962716
0.11739170052537053
-0.008102333200097109
-0.040371739133281404
0.030203703200152303
-0.037788179999914684
0.08873596842933906
-0.018452920304265583
0.08607929442935199
-0.1329847659629157
0.004313764000061176
0.1412239529629415
-0.07900140942938674
0.023615915304295836
-0.08618141242940655
0.03716386000004798
-0.03446033320012924
0.032146709133215885
-0.0042927867998196895
-0.1340375345253947
-0.027109780000058356
0.08025855452534887
-0.048174623200129205
-0.08246750913325307
-0.012981876799830514
-0.0811538199999439
0.04605968842935729
-0.05960725030425797
0.04725049842935937
-0.16882435396285178
-0.028036720000047515
0.11272146396291885
-0.10339997842937933
0.0035168603042586982
-0.10195042842938833
0.025632780000018774
-0.04193111320014017
0.028526339133244216
-0.004237906799851764
-0.13056248452535682
-0.020440509999988477
0.08992952452537271
-0.03563539320013319
-0.06708743913327819
0.005196663200172619
-0.06010467999992762
0.0701189574293474
-0.03235845330425833
0.07789876262939488
-0.13461757296287435
0.009940107999980224
0.1546630439629103
-0.05737926842937193
0.053593800304258324
-0.04796591842938418
0.08331806999998956
0.019143226799891066
0.09251466913322706
0.061966103200116154
-0.0629525245254195
0.047704109999944976
0.15767024452539652
0.030670586799908316
-0.003365249133295334
0.06522988320017575
-0.004791049999956831
0.11977067842935156
0.010775699695741311
0.11374460842940229
-0.10659960396288291
0.02979045000000796
0.1662082139628877
-0.05408301842940132
0.04887215030425797
-0.060193668429365965
0.06423967000000584
-0.0059941832001058
0.06222149913325539
0.02747564020018576
-0.10053662752539566
0.008049041999923904
0.11690103352534792
-0.010337428200123766
-0.04388001113326701
0.025895407200105303
-0.04252758299998603
0.08384455842936978
-0.023303138304295843
0.08136685042933611
-0.13752165496290547
-0.00014278550000977985
0.13666906396295164
-0.0838742814293939
0.018199370304212148
-0.09235695842937586
0.02999984999997663
-0.042809713200116714
0.02249508913323027
-0.015236456799846327
-0.1461696845254173
-0.040237930000097163
0.06642209452537173
-0.06232313320011905
-0.09640953913323869
-0.026144826799863474
-0.09292577999996976
0.03630225842938799
-0.06673823030424272
0.04331835842938033
-0.16906579396292806
-0.024194220000072993
0.12092095396294308
-0.09071862842938651
0.02061922830426525
-0.08063490242943123
0.05081260559994743
-0.01336846620011359
0.059848354133140255
0.0290594532001216
-0.09612712452539349
0.014274400000063662
0.12406265452538265
-0.002950253200151135
-0.0367272391333006
0.03245526320013967
-0.03659942999995349
0.08934100842936404
-0.017841990304243095
0.08738279842938772
-0.1303380129628361
0.008982547999954743
0.1485530789629205
-0.0684595004293423
0.037808575304290236
-0.06810414142941301
0.059212582000100114
-0.008516501200082354
0.06174486913316857
0.028567803200126307
-0.09848358452545615
0.01048325000004259
0.119176914525361
-0.008668085200109624
-0.04308290813327227
0.025606726200128743
-0.0439036319999827
0.08156693342938226
-0.02609891130428024
0.07866730942939512
-0.13940531196277217
-0.00031623379992657254
0.13920141636289793
-0.07760142712940848
0.02921861252925308
-0.0756690364293948
0.053174317000070914
-0.012502949200152802
0.060322668133188206
0.030137733200167802
-0.0935124145254183
0.01913863000002152
0.13165456452538482
0.007573286799895072
-0.023407079133243937
0.04821240320013187
-0.019083009999966434
0.10769823842940048
0.0002528596957194068
0.10397247842936573
-0.11649625396279475
0.018831850000101163
0.15326079396291634
-0.06986032542940976
0.029598187904252726
-0.08348108342941875
0.03663682000004171
-0.037984763200149665
0.026036349133179756
-0.012392226799864275
-0.14336679452539444
-0.03679641000004503
0.07115899452532215
-0.055720223200137003
-0.0875438691332524
-0.014696976799836892
-0.07875479999999564
0.053158358429345104
-0.0474497403042275
0.06450474842937313
-0.14662024896280332
-0.0013110159999620502
0.14329003796289375
-0.06993014842936557
0.03864308530424369
-0.06650229842940053
0.059955409000057976
-0.010227679200146545
0.05610250813315463
0.017712806400140432
-0.11554881752537063
-0.013478029999975149
0.08795933452534599
-0.047161483200169094
-0.08850125913327753
-0.02609986679984781
-0.10098077000002484
0.02024315842933521
-0.09038537030427332
0.012836878429371867
-0.20540526396282588
-0.0651878499999798
0.07662807396287118
-0.1368496284293582
-0.02581686969570321
-0.12590332842938234
0.008051960000028772
-0.05244302320012935
0.02546215913318296
0.00016610320010834734
-0.11898860452541923
-0.0023297599999962198
0.11367706652538385
-0.007372043200099486
-0.035616109133257884
0.03848358320015532
-0.02641147000005405
0.10285734842935342
-0.001837160304273694
0.10509663842941605
-0.11165067396282152
0.02805395000004795
0.16756928396286264
-0.049778348429424336
0.05605695030425964
-0.05026441842937816
0.07687420999999957
0.009333336799873772
0.08022495913321129
0.048150023200141154
-0.07736852452539542
0.03356649999993724
0.1445947345254077
0.019318796799987496
-0.012472269133266344
0.058681663200098926
-0.00867928000003778
0.11846233842938902
0.011831209695725944
0.11686630842934989
-0.10184126396284411
0.03567945999993926
0.1727065839629265
-0.047434238429416936
0.055368150304259275
-0.0540924184294021
0.06985445000001583
-0.0007980632001231003
0.06725926913320282
0.03285856320022813
-0.0942132345254311
0.016066439999916166
0.12746399452534501
0.0036827267999554013
-0.025458659133238012
0.04955997320013017
-0.01284231999993056
0.12019487842939316
0.020163089695742265
0.13214684842935728
-0.07950084396285263
0.064827869999967
0.20806280396290394
-0.006848438429372744
0.09976892030425893
-0.007483178429411999
0.11686384999998664
0.044676406799880025
0.10917068913317769
0.06910313320023284
-0.06548409452539322
0.03568737000012247
0.1366879645253829
0.0015253967999233342
-0.039714049133263145
0.02311773720011924
-0.05112300599995977
0.07082354742935185
-0.039267270304258105
0.06377267842936468
-0.15524678396287522
-0.016704880000141694
0.12229316396288135
-0.09549508842936534
0.009157530304275234
-0.09926010842939378
0.024138110000093853
-0.04927804320010279
0.013221959133206028
-0.03011229679979924
-0.1696610645254559
-0.0757003599998986
0.015532574525347176
-0.13195866320007196
-0.18767504913323482
-0.1415466367998776
-0.2344426999999435
-0.13259681157065803
-0.26325655030425843
-0.1795748115705911
-0.4162747639628113
-0.292677000000114
-0.16483783603712718
-0.3886215884294315
-0.2828820496957251
-0.3828077884293896
-0.24276699999993534
-0.29093346320015917
-0.19415655086680245
-0.1937524367998313
-0.2808866645254321
-0.12649749999996515
0.03216319452537102
-0.04225808320003915
-0.021085229133243278
0.10378023320012551
0.0896320000000273
0.2682399884293461
0.2099761496957412
0.3587691884293427
0.17796803603718014
0.34688819999991377
0.5081626639628772
0.3043925115706127
0.4149580503042745
0.3043763115706286
0.41897010000008095
0.33128563679984396
0.3751027491332172
0.30982406320024697
0.1460764354745917
0.21552200000001376
0.28330396452532236
0.11435383679992878
0.03974759086678505
0.07023892320014269
-0.03433055000000191
0.06001639842936434
-0.0743025203042425
0.008580828429350124
-0.22632001396284246
-0.09925511000010395
0.0327303639628546
-0.1874896884293886
-0.08051794969576262
-0.18202348842938132
-0.0476453499999483
-0.10642335320016696
-0.025926710866807916
-0.0482243767997938
-0.16398549452537037
-0.04422224999991634
0.07424617452534622
-0.045144233200066525
-0.07263849913324008
0.0015249532001458121
-0.06418108999998565
0.06342663842938255
-0.043624930304226185
0.0604763184293943
-0.15926567396286503
-0.022580900000167176
0.11406661396300612
-0.1057976984293812
-0.0019138896957182142
-0.10947293842943667
0.017235779999931554
-0.049881633200135736
0.02229513913318362
-0.007657036799825878
-0.130297864525419
-0.015833859999982894
0.09924088152537003
-0.02163569820009861
-0.048880295133338775
0.02680517120014895
-0.036215690000014844
0.0949178184293586
-0.008230280304226546
0.09959534842939302
-0.11708690396278709
0.02162401999986056
0.15896871396298354
-0.06175730842941058
0.03952836030428142
-0.07232902842941845
0.04842384500008424
-0.026129309200132598
0.03741814913321195
-0.001979106799821169
-0.13442333452548166
-0.02973240000000396
0.07600444452540794
-0.05335337320005711
-0.08778899913331045
-0.017677506799861974
-0.08446490000004406
0.04482767842937683
-0.058171430304263694
0.05179679842932686
-0.1608749739628692
-0.016554240000020756
0.12770799396296095
-0.08510406642940317
0.024740273304244276
-0.07826545942940023
0.05121523500005504
-0.015076389200143517
0.05597443613324028
0.02305554020022033
-0.10409177052544379
0.004590527999974967
0.11297140352534524
-0.015080687200052392
-0.049501297133282114
0.019476800200109744
-0.04937896109989136
0.07711705982939504
-0.029220401300264064
0.07704180566937105
-0.1395183015628918
0.0009637195000069812
0.14159040996297936
-0.07456972842939577
0.032248410304243906
-0.07345483142942419
0.05367585000002583
-0.014653429200140391
0.054600471133178355
0.02003349620018825
-0.10870432362541996
-0.0016482069998642053
0.10499975752536908
-0.024930282200084482
-0.06137618013329058
0.005453913200112879
-0.06566781999992057
0.05850178842933967
-0.050113100304210956
0.054070838429378446
-0.16421694396290035
-0.025022240000056234
0.1148635439629568
-0.10137644842935158
0.006127560304297008
-0.09806345842940596
0.0313800300000421
-0.03388102320010915
0.0391247391332067
0.008882785200192953
-0.11512486452539614
-0.0031346659998852766
0.10844862052534743
-0.016746900200116564
-0.04885098713326226
0.021684712200101947
-0.04652280199994977
0.07965024542932979
-0.027935261304256786
0.07633121362938586
-0.14287479196283642
-0.005472645000073971
0.1318931819629342
-0.08738790842941775
0.016862860304259868
-0.09063105842938775
0.0357790000000129
-0.0319757932001796
0.03933811913323503
0.008485990200160878
-0.11493172052535826
-0.0009915185999063477
0.11396627752537125
-0.006445383200046959
-0.03246001913328739
0.04531878320010508
-0.014695749999933498
0.12035809842934797
0.021995519695742864
0.13536340842935646
-0.07517299396285902
0.07011140999995376
0.2142428339628521
0.00025267157062644485
0.1078994403042595
0.0017875615705742476
0.1274638399999837
0.05682220679982352
0.12307079913313632
0.0849484232001288
-0.04768296452540802
0.05538697999993616
0.15812675452530855
0.024455366799966436
-0.015552649133304536
0.047955963200136315
-0.026215870000053654
0.09514770842935216
-0.016115860304220717
0.08543183342940067
-0.13553638796286757
0.0008176639998450758
0.13760973796290307
-0.08205349842937484
0.02162779130427582
-0.08672178642936539
0.03820942000009091
-0.03186517320009977
0.03613000913319274
0.0008084232002438761
-0.12808169452539708
-0.020658899999903016
0.08683064452542004
-0.04182044320011112
-0.07662229913323942
-0.007773716799888666
-0.07664457999999191
0.04989761842938774
-0.05633530030429466
0.050094348429371285
-0.1661347639627896
-0.02520381000003624
0.1159944639628069
-0.09945032842939554
0.008230060304213326
-0.09640439842938932
0.03195487999997075
-0.03502283320015615
0.03565624913319297
0.002510303200166323
-0.12486221452543281
-0.016586890000105985
0.09104925452537029
-0.038208853199987354
-0.07437938913324788
-0.007744686799871482
-0.07956980999993017
0.043371168429388575
-0.0669840003042669
0.035011918429378674
-0.18587953396291274
-0.049600040000144924
0.08717520396295844
-0.13222018842943362
-0.027711199695761683
-0.13461843842943064
-0.0074511799999675
-0.07440812320010756
-0.0023755708667873993
-0.032714626799746696
-0.15590071452539492
-0.04214054999999063
0.07215300452532167
-0.04942710320013849
-0.07707887913322822
-0.0013865467998542894
-0.06389591000000484
0.06833956342935057
-0.03301793530424191
0.07740940822934061
-0.13591113896282075
0.006905896999928283
0.14904272296286225
-0.06627983842934394
0.040947910304266054
-0.06464118842939505
0.06258395000009424
-0.005440123200149886
0.06453777913315938
0.031323153200138946
-0.09539033452538515
0.014503860000033772
0.12483460452543196
-0.0006228332000601973
-0.031924949133281456
0.040484523200061205
-0.02477274999998858
0.10532898842938285
0.0024453096957490345
0.11185863842939348
-0.10199357396291692
0.04067253999977412
0.18291097396285372
-0.03223082842938202
0.07501519030425427
-0.030794188429394208
0.09579087000001957
0.02657898679985323
0.09471124913326927
0.05886943320022592
-0.07117102452541971
0.03467216999996723
0.14027780452538338
0.009509456799907716
-0.027590239133225024
0.03877802320013792
-0.03264031999988136
0.0913388784293589
-0.017456590304279426
0.0864226514293922
-0.1323789649627794
0.005989867000074704
0.14465139796283116
-0.0732827104294114
0.03200228430422855
-0.0749091594293727
0.051330172000035826
-0.017557795800157684
0.05149725053317056
0.017109031200148353
-0.11102784952540881
-0.0029963930000538462
0.10496606252539314
-0.023349788200013988
-0.0579466891332616
0.010936001200095576
-0.058030439000001516
0.06830895342934569
-0.03821437230426311
0.06787187142937151
-0.14877280996294803
-0.008284695000170409
0.13247402796290908
-0.08337384142933042
0.023991679304244857
-0.08088368342939994
0.04734270299991567
-0.0196385482001405
0.05119243943323568
0.018397291700263437
-0.10844340202537206
0.0005613061001069813
0.10912995332535859
-0.01898648920016513
-0.05379632413332351
0.01440468520015823
-0.05565012499993977
0.06925287742938127
-0.03897567630427216
0.06525851842940703
-0.15329436396281054
-0.014607540000006249
0.1246009139630466
-0.0924125184293598
0.01429393030424451
-0.09062559842942387
0.03825303000002289
-0.0273405882001969
0.04559792513317377
0.015540600200120984
-0.10800963352542069
0.00468570399999496
0.11716955752539533
-0.0070238532000781485
-0.03817168913326707
0.033194993200087786
-0.034428620000014454
0.09196842842935402
-0.015870370304247153
0.08753759842941443
-0.13315934696290674
0.002080600999748639
0.13661434596287794
-0.08613743142938918
0.01406126030426081
-0.09791274842937757
0.02371987000003916
-0.0489544332001202
0.01746753913324687
-0.018077466799800723
-0.14575846452539687
-0.03551432999998063
0.07643915452540623
-0.04618907320011892
-0.07359039913332033
0.0037105632001049674
-0.055945291999952705
0.0802187914293896
-0.016400780304272868
0.09916266842938505
-0.10885697396281471
0.03901411000004922
0.18558807396301544
-0.02629811842938177
0.08292772030423509
-0.022267918429401505
0.10351064000000995
0.03208071679980937
0.09664877913319364
0.05603953320015852
-0.07981800452544548
0.019423949999907344
0.11791384252537053
-0.020183338200031944
-0.06445595913324721
-0.00484482679989191
-0.08228062999993643
0.03668523842937639
-0.07587693030424787
0.025722158429355657
-0.19379029396293787
-0.05452023000005947
0.0866344839629193
-0.12727818842934627
-0.0165590296957399
-0.11683943842942877
0.016936460000026222
-0.04380102320012798
0.03372084913325006
0.00779531320024548
-0.11221062752539468
0.003300080000068171
0.11783061952538144
-0.005038573200146296
-0.03546934913330045
0.03616443320012528
-0.03147034999996565
0.09482468842935245
-0.013021760304256915
0.09064075842942795
-0.1293787839628599
0.00709943799996827
0.14349616696299725
-0.07679145672936696
0.02635416530425106
-0.08231481042939319
0.04283565100008797
-0.02630935120017032
0.04339058113319685
0.010556259200094363
-0.11524717352538376
-0.004165689999907425
0.10741017352541819
-0.016947013200059327
-0.0475013641332808
0.025210700200201996
-0.040360287999949375
0.08873361842937066
-0.015858420304240603
0.09119247842940725
-0.125547413962942
0.013790249999859583
0.15240342396288817
-0.06646791842939635
0.03717767830427605
-0.07190002342940639
0.05190657799996781
-0.01945038820015313
0.047307517133269944
0.010996892200181324
-0.11859149552543352
-0.01139708000006492
0.09640226452536958
-0.03140156320013687
-0.06484195913334272
0.00568228320013154
-0.06126322999988763
0.06733166442934671
-0.03685364330429442
0.07152178742937786
-0.14308978196280453
-0.0009367991998853084
0.1410361649629661
-0.07407698242938895
0.033587087304213545
-0.07141572042937082
0.05636019500007503
-0.011266903200076422
0.05888417213320801
0.025571321200140565
-0.1014643755254226
0.007847082000004958
0.1173627565253934
-0.009073901200058595
-0.04143829913322414
0.029979443200134678
-0.03612975000000779
0.09334104842934757
-0.009883470304278115
0.09951218842934849
-0.11396018396298721
0.02946844999986958
0.17281688396286995
-0.04094188842941832
0.06783139030422985
-0.036396188429412134
0.09168267999995489
0.023737216799839065
0.09276270913323634
0.057289163200218846
-0.07301356452537183
0.03184952999989294
0.13571097452534478
0.0024330967998357454
-0.03788381913328606
0.024633074200151855
-0.05114314499990057
0.06813077042938313
-0.045511910304250364
0.05364378842935589
-0.1695440639628497
-0.03500238999992079
0.10059268396302147
-0.11945101842938283
-0.01512890969573371
-0.12176131842943608
0.006026100000016618
-0.06006372320008421
0.012977279133174431
-0.016357506799886814
-0.13855653452542044
-0.023958649999991713
0.09093608452539559
-0.030359713200085965
-0.058153247133257736
0.01702165720016903
-0.046434352000020725
0.08441332842934184
-0.01878022030422538
0.0893337084293914
-0.12666966396293183
0.013117039999834101
0.15191940396283882
-0.06700021242936674
0.0363935293042826
-0.07314568342937569
0.050057161440078365
-0.022005961200126566
0.04397228113324754
0.006845063200191475
-0.12358145452541065
-0.01717492000001278
0.08993520452540649
-0.03842692320016351
-0.07227681913335644
-0.0019720367999154532
-0.06891297999995898
0.05992727842936336
-0.04378420030428787
0.0652355484293707
-0.14855541796283983
-0.00546096899991079
0.1375133489629763
-0.07662789042936802
0.031842110304228795
-0.07257762042939965
0.055447755000049156
-0.012355623200123431
0.05710456013323109
0.0224980192001507
-0.10646833852544524
0.0002451030999661474
0.1065023955253708
-0.023802716200039757
-0.060534815133209754
0.006107313200147199
-0.06505050999989724
0.059257288429378246
-0.04903641030429967
0.05566391842936941
-0.16196243396271637
-0.02196105000006495
0.11885704396289418
-0.09635034842942551
0.012265270304208303
-0.09078295842938143
0.03982225000001995
-0.024275008200148405
0.04987771413313237
0.020743365200200894
-0.10220377452539443
0.010801019999945077
0.12335036452536763
-0.0009429632001540997
-0.03224665913329978
0.03900433320011891
-0.02857388000006287
0.09813275842934024
-0.009050940304235127
0.0954087784293855
-0.12379303396288499
0.013406860000053733
0.15034245396298618
-0.06964580742935321
0.03352848630427008
-0.07537887942941944
0.049264022000127174
-0.020619525200117162
0.0481819381331607
0.014385023200086545
-0.11234910152539758
-0.002088650999939571
0.10885486542533307
-0.015867806200103914
-0.04644522313328014
0.026604570200181567
-0.03826367999995565
0.09187854842935847
-0.011352530304255613
0.09733517842938423
-0.11760215396276157
0.02362068999989957
0.16411315396284898
-0.05296166842941938
0.05234794030426104
-0.05529187842940453
0.0697007400000525
-0.0007326332001735651
0.06670274913313558
0.030875443200210316
-0.09838522452543327
0.009074174999993884
0.11716454752538388
-0.010238653200144686
-0.04309551013329658
0.02826635320009706
-0.037519090000030335
0.09258801842934858
-0.009752980304309416
0.10071746842939162
-0.11160618396284369
0.03293859000015468
0.17728661396294101
-0.03563355842941198
0.07382330030431415
-0.029905478429382994
0.09849873000006876
0.030741936799917196
0.09989070913320869
0.06457521320009596
-0.06538046452540833
0.04015612000001828
0.1451388745253807
0.013504506799970398
-0.024671009133223475
0.04068968320018783
-0.03150972999992312
0.09205052842933537
-0.01676917030425633
0.08732327842939903
-0.13079221796275167
0.00867359499995504
0.14873882696285887
-0.06775464742940457
0.038470876304260326
-0.0680704784294243
0.05756984199999408
-0.013248347200167307
0.05211652303319223
0.011740660200211049
-0.12487179452538562
-0.02811280000004826
0.06563047452534503
-0.07984233320020884
-0.1342989291332486
-0.08778823679986855
-0.1812913999999523
-0.08112791157064309
-0.2146279503042654
-0.13502641157066714
-0.37696876396286083
-0.2596842999998808
-0.13909723603701768
-0.3709080884293323
-0.27376944969576017
-0.38259848842937466
-0.2515201999998987
-0.30845806320010466
-0.21999495086678814
-0.22716003679989463
-0.3208732645254202
-0.1719318999999329
-0.017464735474658127
-0.09470581320009377
-0.07487288913322028
0.05015884320016267
0.03755786000001848
0.2189746884293437
0.1646682496957964
0.3184340884294052
0.14345663603720313
0.31876399999991956
0.4867528639628137
0.28981931157061025
0.4071418503042308
0.30306631157058733
0.4237094000000721
0.34147053679983896
0.39001714913312185
0.3286605632001469
0.16797613547460363
0.23963170000004602
0.30879236452539266
0.14041843679995641
0.06563175086668102
0.09523334320013771
-0.010784270000010733
0.08167029142936522
-0.0548964503042661
0.025473218429347674
-0.21214760396287896
-0.0878590900002346
0.041389613962937125
-0.18146538842939103
-0.0769779496957074
-0.18078238842939778
-0.04845213999995711
-0.10899288320012981
-0.029962840866805035
-0.053442906799729364
-0.17008092452545903
-0.050909330000066
0.06723298452535813
-0.05224894320008435
-0.07966264913324589
-0.0052344667998591755
-0.07056755000003993
0.057466548429355335
-0.04916312030427788
0.05526971842934639
-0.16423517396275555
-0.02749323999997949
0.10897563396285502
-0.11134900842944856
-0.008255089695769907
-0.11693259842937626
0.008297500000013676
-0.06066086320015479
0.00933793913316984
-0.023069536799843714
-0.14839810452540825
-0.03679418999999612
0.07532594452535385
-0.04848724319996926
-0.07848626913326232
-0.005294276799915572
-0.07044412999997819
0.05902395842934212
-0.04520628030428693
0.062274108429362485
-0.1539875839629242
-0.01405786000017913
0.12531657396294704
-0.09255715842937623
0.01241484030429187
-0.09501277842941755
0.030814559999984472
-0.03813291320012355
0.03142564913319815
-0.0017016367997286265
-0.12779322452541136
-0.016825299999880767
0.09495679452531926
-0.02875310320014851
-0.05811958313324268
0.016340095200175195
-0.04689378599996192
0.08509011042936365
-0.01615368030423383
0.09456063842943478
-0.11839335396277265
0.024701809999985034
0.16686864396283796
-0.04884521842936883
0.05736634030428282
-0.049914018429367935
0.07483432000004622
0.003503946799879587
0.06934687913317304
0.031201413200165704
-0.10107872752544707
0.002719898000052687
0.10658809952537006
-0.025492573200033425
-0.06333731913325913
0.002885903200090698
-0.0680171600000366
0.05716557842935044
-0.04972337030428764
0.0567721884293686
-0.15877655396288287
-0.016590560000305555
0.12636136396290185
-0.08691723442943501
0.023256184304262344
-0.07868591542938115
0.052460561000153436
-0.011721831200117288
0.06169203913324614
0.031161003200207205
-0.09375638452542212
0.01677826000007709
0.12646202452536692
-0.0009698832000742084
-0.03555218913318603
0.03245379320018145
-0.038196709999929385
0.08573416842937198
-0.023826355304234548
0.078729815429376
-0.14183097796279084
-0.005440138999959497
0.13121641796281971
-0.0885680984294276
0.015212180304282105
-0.09276981842941913
0.032980329999987804
-0.03573940320017367
0.03416822913315611
0.0013136532001664439
-0.12472689452548479
-0.014116340000080404
0.0967846845253312
-0.02837781320002402
-0.05975391613328473
0.012197382200125062
-0.05399930600009501
0.07468165742935877
-0.03002108330424634
0.07732814012930983
-0.13868229396289997
0.0018477249998863398
0.14212179696294314
-0.07462718842935531
0.03158966730426163
-0.07455491942937283
0.05248363100004955
-0.015424508200111018
0.054905492133249335
0.02218826620029021
-0.10390754452543399
0.006599124000125897
0.11745112352535617
-0.007641483200138369
-0.03879585913330118
0.03353000320012819
-0.0321027699999878
0.0973125184294084
-0.006553120304255391
0.10163202842938213
-0.11365993396283604
0.027395089999914076
0.16791073396303516
-0.04897470842941279
0.05664293030425259
-0.05063171842941082
0.07473251999992939
0.004617046799832585
0.07225237913315932
0.036444263200102286
-0.09302763452540905
0.013956740000104826
0.12129222452537887
-0.007141983200014603
-0.04128190913328153
0.028613343200131314
-0.03875495999992605
0.0897339184293671
-0.014175000304202287
0.09485381842939823
-0.11864043396291814
0.025086439999850864
0.16903906396292606
-0.04382181842941408
0.06611467030431438
-0.03667753842942403
0.09304680999999114
0.02690561679992335
0.0978340591332324
0.06427041320022604
-0.06413450452547283
0.0425331799999928
0.14803636452534433
0.016153906799871054
-0.02313146913337155
0.040042313200134454
-0.035502920000046206
0.08353889942932909
-0.030846372304256103
0.06698549642932337
-0.15806131396276663
-0.02589337999989403
0.10684613396299
-0.116506588429398
-0.015929289695748132
-0.1266315884293744
-0.0031630199999016437
-0.07373767320016116
-0.005265510866792708
-0.03917529679981471
-0.16582926452544788
-0.055501569999937314
0.05537855452536812
-0.06960036320001387
-0.10066996913322487
-0.028283896799921944
-0.09404646999998445
0.03498691842940352
-0.06950274030427658
0.037866038429339444
-0.17832843396296333
-0.038256450000184614
0.10125760396290787
-0.11654431842939927
-0.011625069695759924
-0.11928939842941572
0.006041119999932731
-0.06370696320015803
0.004746339133235619
-0.029732846799773227
-0.1574201145253971
-0.04823528999982196
0.06165782452530546
-0.06391661320011953
-0.09492406913332359
-0.021799506799831184
-0.08592788999987724
0.04572451842936551
-0.05515164030420336
0.05679243842941174
-0.1540615239628118
-0.007965421999929506
0.1380934149630594
-0.07286837242939187
0.038908667304304624
-0.06217119842939416
0.06926497000003995
0.004935026799873215
0.0778989691331369
0.04679322320012112
-0.07879650452545975
0.031172410000020544
0.14052550452535625
0.01309199679992197
-0.021063319133295257
0.04775152320017195
-0.02163088000004287
0.10403390842932421
-0.00335955030422384
0.10174694842934556
-0.11600121396289391
0.023414209999779906
0.16322614396286267
-0.053376588429375774
0.05348496030428413
-0.051614318429379274
0.07675412999996527
0.010323726799876348
0.08211384913329228
0.0506321032002362
-0.07455373452543593
0.03639194000009042
0.1471106745253812
0.021231886799881198
-0.011440439133320386
0.05869390320014698
-0.00979084999993566
0.11617422842937383
0.008349509695713658
0.11216838842936165
-0.10769875396282999
0.028707110000035018
0.16464483396301421
-0.056605138429450634
0.04498721030423033
-0.06580215842941728
0.05662650299998153
-0.015791251200060995
0.050203921133193566
0.013402766200130537
-0.11639516152547048
-0.0091737960000216
0.09886401452531743
-0.02850932319999503
-0.06136697113324728
0.009945785200178211
-0.05604873900001033
0.07363740042936062
-0.02935270350422455
0.08023265342936037
-0.13311250596293908
0.010285319999971803
0.1534153739629321
-0.06072442842943454
0.04757064030428341
-0.057160148429399066
0.07042216000004328
0.002049336799882607
0.07080675913321322
0.03533594320024562
-0.0946221045254478
0.010976439999957328
0.11599940452534237
-0.01566743620018296
-0.0539150641333373
0.011092359200121815
-0.06181933999999407
0.060622288429382165
-0.049644830304233584
0.052971888429302894
-0.16679752396284708
-0.028991300000000463
0.10960096396299601
-0.10783378842936225
-0.001417999695725633
-0.10656520842940895
0.022058140000014076
-0.04387201320011427
0.028636319133196763
-0.0019195967998687363
-0.12599285452542283
-0.01382196999983637
0.09819442452539318
-0.02632310920005919
-0.05755395913324406
0.01408979820018448
-0.05283539099993232
0.07473692342936895
-0.031419267304245393
0.0741595144293752
-0.1438762919629573
-0.0055616590001546255
0.1323591059628869
-0.08684027042942842
0.01686848030426258
-0.09181218842942215
0.032701399999984865
-0.03769033320011113
0.03023240913326987
-0.004762846799818553
-0.13298887452545854
-0.024441649999993865
0.08465134452533049
-0.04194853320009996
-0.0742802991333341
-0.0027594167998719298
-0.06880210999996153
0.060630358429330955
-0.04274551030423431
0.06645026842939128
-0.14727598796280575
-0.004121213999808566
0.13900643356297893
-0.07479080242942102
0.034317452304273646
-0.06911181442940063
0.06033925000009209
-0.005564283200079895
0.06626390913317984
0.03443662320014069
-0.09139725452546167
0.01873191000003054
0.12858119452535433
0.0018862967999415427
-0.031436829133261
0.03825711320019074
-0.030361049999990734
0.09582449842937728
-0.0114133903042548
0.09335120842931642
-0.12528105396271375
0.012616339999900847
0.15023882396286867
-0.06921600942941361
0.03419021030426186
-0.07489257942941382
0.04905357940001741
-0.022111352200164393
0.04481198813315471
0.008582521200264441
-0.12106230452541088
-0.014101100000036008
0.09328648452531976
-0.035071163200164124
-0.06914040913328613
0.0007770332001343395
-0.06667999000006541
0.0615869884293674
-0.04265311030425516
0.06601022842932383
-0.14786717096285096
-0.0045046929999349936
0.13915957706302023
-0.07381980342941488
0.03631066430424138
-0.0659501184293923
0.06470861000003368
-4.408320010174105e-05
0.07278631913317436
0.04172145320007653
-0.08365853452544546
0.026546960000079348
0.1360566045254031
0.008598696799950945
-0.02588151913325779
0.042290473200165574
-0.028153399999958195
0.09598276842932607
-0.013420130304202051
0.08920886842940481
-0.13142224696275892
0.004737899999865368
0.1409948299628516
-0.07934841342939881
0.02374830130430592
-0.08500437342940553
0.039944269999958995
-0.029544313200130026
0.0396970091331378
0.006346913200191593
-0.11992164452544972
-0.009210265000032676
0.10216668952536741
-0.022130237200163393
-0.05229140403335651
0.021251615200140593
-0.0430333399999874
0.0878039284293476
-0.014622240304264556
0.09492296842933863
-0.11905620396278152
0.023178200000120476
0.16467994396297506
-0.05148583842940008
0.054468880304240665
-0.05284710842941541
0.07202611000006622
0.0009192567999045248
0.06700920913323102
0.029038483200159518
-0.10319896852548431
0.0004178432000372028
0.10380912552533285
-0.029094803200039633
-0.06813910913320984
-0.0034853567998562665
-0.0763156100000166
0.0466268184293625
-0.06273745030427635
0.04115969842933735
-0.17698156396280412
-0.03726555000003369
0.10346115396289293
-0.111672028429384
-0.0028623496957683875
-0.1055636484293972
0.02547798000003701
-0.03812762320015187
0.036540519133141
0.007888733200201016
-0.11457676552537396
-0.0011487209999838685
0.11172980952532857
-0.012368290200153974
-0.04367441513329985
0.027380605200115433
-0.040637455999954865
0.08535235642938402
-0.022853393304211815
0.08025471142942701
-0.14063757716288625
-0.005475539999915
0.12908530396289847
-0.09357479842938526
0.006718500304293402
-0.1052514084294352
0.0162208400000078
-0.056854333200120635
0.008865789133160641
-0.02770030679991333
-0.15681941452543663
-0.04843984000000494
0.061241214525380484
-0.0639828032001038
-0.09411375913328021
-0.019636636799849998
-0.0820538599999386
0.0515792084293427
-0.047114130304277066
0.06715110942935215
-0.1412843079627347
0.007232500999930836
0.15565257396284776
-0.053051628429377856
0.06083289030428436
-0.038278068429357444
0.09496667000006954
0.0322760167998825
0.10669103913318898
0.07679955320021044
-0.04777018452547234
0.063035239999974
0.1730409445253448
0.04603686680001128
0.01199156086675681
0.0806174332000936
0.010728259999986722
0.13553724842936093
0.02686993969571389
0.13016695842936826
-0.08992220396284492
0.0465921099997312
0.18292468396293976
-0.037756388429444045
0.06440553030421042
-0.045943508429398774
0.07667383000008582
0.004070536799857517
0.06937869913321729
0.03125718320025193
-0.1005360285253609
0.003976358000089342
0.10860174192534165
-0.022833731200103062
-0.060306206133223544
0.0059962132001843554
-0.06526155999990606
0.05908180842938244
-0.04912560030423302
0.05560176842936697
-0.16202375396277988
-0.02217792000001369
0.11826499396285765
-0.09757161842936304
0.010120020304283644
-0.09407255842943676
0.03512809000001113
-0.03062812320017077
0.04163839913311859
0.010421111200146268
-0.11470546152542468
-0.003946629000068154
0.10633883052539245
-0.020180145200052877
-0.053617328133322255
0.01568789420012796
-0.05361446900007169
0.07162621142934114
-0.03673518830423336
0.06684484842937438
-0.15288602396286202
-0.01589037000030428
0.12114327396289457
-0.09847984842936434
0.00525811030426317
-0.10289278842936234
0.022608660000118352
-0.04638881320010811
0.023246729133265275
-0.009872556799738648
-0.1361123045253997
-0.02562813999986185
0.0852102945254174
-0.03999270320009364
-0.07147052913322036
0.0002776632001029976
-0.06629659999996447
0.06175995842939078
-0.04388980030430731
0.06211635842938177
-0.1556830939627981
-0.01742231000004917
0.12009805396281244
-0.09985214842942182
0.002811040304200669
-0.10717051842940034
0.01585591999995272
-0.05610581320019261
0.010310239133175247
-0.02593724679985299
-0.15503027452543544
-0.046833220000110296
0.0625394345253536
-0.06305046319996988
-0.0935573391332656
-0.01940109679986577
-0.08202834999990272
0.05152630842937757
-0.04713376030424277
0.06721681142938918
-0.1411291809629072
0.007430694999887617
0.15577972396296402
-0.05319330842934954
0.060133120304262454
-0.03989659842944164
0.09202132000005994
0.027569116799898152
0.0997895391331949
0.06731288320027078
-0.060191254525411596
0.04740669000000506
0.15403413452531903
0.0236230767998422
-0.013664559133245942
0.052011003200137365
-0.02040086000002288
0.10244305842933957
-0.007489080304254565
0.0954059084293879
-0.12419096396281516
0.013722569999915352
0.15234751396276724
-0.06516853842933346
0.04101033030425341
-0.06463497842939202
0.06321722000012168
-0.003782673200158241
0.06734682913317844
0.03513856320015642
-0.09088792452538665
0.019097750000074937
0.12877565452542936
0.0018829867999572807
-0.03158473913326239
0.03806641320005286
-0.030455819999961137
0.09605589842938589
-0.010479820304275047
0.09554604842940399
-0.1211345139629254
0.019485639999761186
0.1606648339629188
-0.054366828429408307
0.054307230304241616
-0.048729338429405224
0.08191515999995605
0.017924886799844886
0.09225600913325155
0.06334081320020661
-0.05935569452542234
0.05392436999996291
0.1667331245253667
0.042604586799925195
0.011245510866638886
0.08224327320014362
0.014195760000146086
0.14019710842934788
0.032012399695744716
0.1350289084294027
-0.08585933396277387
0.04944109000010725
0.18430577396301084
-0.037966808429400895
0.062486170304252686
-0.0492707284293837
0.07235605000006327
-0.000736833200151981
0.06450456913315285
0.02638476220016584
-0.1052245785254255
-0.0006244882000581566
0.10369463752539052
-0.028880513200033302
-0.06897824913327932
-0.007028156799912776
-0.08483953000001955
0.030394198429334683
-0.08975371030427576
4.030842934521495e-05
-0.23554998396294247
-0.11665800000018334
9.886396290059718e-05
-0.2415914884293199
-0.1609202496957678
-0.2927067884293969
-0.19084130000001143
-0.28272916320014885
-0.23413605086674527
-0.2848688367997191
-0.42458936452537466
-0.32265649999985185
-0.21468903547464405
-0.336189263200139
-0.35630834913330445
-0.2654988367998501
-0.30537809999991233
-0.14325961157061567
-0.2078645503042848
-0.05439341157058247
-0.21951625396281904
-0.02467389000001918
0.17190687396305215
0.011890101570613917
0.17348615030423184
0.1196124115705651
0.2944346000000049
0.26853353679979475
0.37379814913315607
0.3676634632001016
0.25894863547459074
0.37768109999999067
0.4877117645253787
0.35289293679997613
0.3034343508667152
0.34954236320009346
0.251414000000013
0.343487888429343
0.198748549695777
0.26391238842942494
0.004827836037098826
0.10314249999978119
0.20337903396288354
-0.050206208429378674
0.02321377930428494
-0.11097921842938858
-0.006784329999933399
-0.0921384432001145
-0.03387215086677086
-0.07354879679978325
-0.20166063452541352
-0.08911905999998494
0.027051954525403585
-0.09015828320013823
-0.11171750913337482
-0.02848377679990339
-0.08305205999997074
0.05682506842936452
-0.03770832430428553
0.07819637842935877
-0.13094609096280913
0.014235610000036291
0.15674495396300694
-0.06019384842937128
0.04349373030422245
-0.06713153542939848
0.05370010200003739
-0.021805656200198982
0.039932939133212705
-0.0019160167998240121
-0.13723950452544809
-0.03562774000005149
0.06701086452536789
-0.06531628320001448
-0.10244313913322814
-0.03471055679984072
-0.103445239999909
0.024375658429379443
-0.07961237030429733
0.02985673842936616
-0.18292499396294634
-0.03835155000011787
0.10647675396292483
-0.10550012842942877
0.005425270304210656
-0.09633740842943977
0.03450260000000819
-0.030341713200136324
0.04224300313323234
0.010969730200226173
-0.1144406155253973
-0.0039355110000725635
0.10635808152536476
-0.01967539120012882
-0.05194495923331816
0.019290403200130986
-0.047206699999938206
0.08173058642934143
-0.022111231304232783
0.08666810042938225
-0.12742102396285432
0.015463170000000815
0.15838040396301684
-0.055660498429356456
0.05303454030427519
-0.05108316842941827
0.07734373000011541
0.010009916799894918
0.07992646913314232
0.04563313320011183
-0.08319020452540044
0.02346704000004279
0.12943488452541557
-0.0014587832000786394
-0.03920287913329852
0.026067707200193642
-0.04684166899996741
0.07533148942935965
-0.035509464304253266
0.06614074842938097
-0.15493321396293647
-0.01879592000015335
0.11774668396287964
-0.10215318842934906
0.0013155503042633979
-0.10722498842940335
0.017539880000040732
-0.05271066320016148
0.015035839133288993
-0.020678016799764422
-0.15023041452543615
-0.043799990000023756
0.062308724525380985
-0.06813796320011942
-0.10510587913332364
-0.03885656679989086
-0.11070068999986019
0.012581908429349767
-0.09703409030430707
0.00617025842938837
-0.21304465396281302
-0.07465943999989823
0.06463025396297167
-0.15183806842941522
-0.04396276969579911
-0.14714053842938182
-0.015944739999943003
-0.07864076320009881
-0.002173220866809711
-0.02794401679987876
-0.14657018452541118
-0.028323209999999353
0.09030852452537672
-0.02715332520000433
-0.050955334733241854
0.028195383200140377
-0.031242789999934874
0.10366333842933655
0.004560399695746023
0.11683007842939577
-0.09509980396298165
0.04874752999990212
0.19161190396288955
-0.023250388429407833
0.08420057030426267
-0.021384758429423126
0.10572919999998232
0.037536866799844776
0.10730455913321862
0.07381707320023632
-0.05322492452538849
0.05631922999984315
0.16627620452534214
0.040376986799816425
0.00847609086665943
0.08011371320014352
0.013880450000081403
0.14276627842935807
0.038373809695736984
0.1459081284293296
-0.0701757639628301
0.06988995000006629
0.20916562396301297
-0.009284138429335537
0.09433076030425364
-0.015340518429433035
0.10719955000008954
0.033833336799907444
0.0977980591331935
0.05789040320013066
-0.07598514452542307
0.026320960000049454
0.12876798452539293
-0.004683323200068491
-0.043882457133238656
0.02104966620014664
-0.051141851999993285
0.07273269642934486
-0.03548622830427481
0.0696568344294019
-0.1472092989627662
-0.006331753000224304
0.13532586596284435
-0.07920833942939301
0.029777354104233152
-0.07320971542938672
0.057039356000060326
-0.007870733200148958
0.06501170913310349
0.034157663200172154
-0.09080155452539923
0.019963280000028383
0.13014448452538982
0.003453646799890745
-0.03021498913333737
0.03890948320014978
-0.030488070000022485
0.0947640084293664
-0.013504740304263744
0.09015055842941799
-0.12951136396284832
0.007467402000121754
0.1443086759629959
-0.07580819242939431
0.02695853330429493
-0.08269409842942471
0.040671726000031126
-0.03116757320011772
0.034865559133176585
-0.002654396799868619
-0.13401078452546192
-0.02929752000008364
0.07522762452535522
-0.056674093200059075
-0.09503814913326426
-0.030090146799847093
-0.10317648999991527
0.018874668429353182
-0.09204722030427553
0.009631938429343137
-0.21131325396272488
-0.0749512000000324
0.061964503962885664
-0.1572884784294518
-0.05269691969576756
-0.15956311842937837
-0.03247982999990713
-0.0996814232001427
-0.028062620866848548
-0.05898369679974484
-0.18286866452541112
-0.06992926000001375
0.04344427452537905
-0.07911516320017342
-0.10775519913328072
-0.03300444679990349
-0.09637928999998994
0.035100658429343304
-0.06686390030428457
0.04315011842935922
-0.17038825396289348
-0.027595390000004674
0.1147042039629777
-0.10026907842937949
0.007511800304294221
-0.09739043842941639
0.030618290000109138
-0.03655986320011147
0.034317479133179785
0.002094813200067217
-0.12362075452538615
-0.012728379999898405
0.09860169452531639
-0.02581477020004965
-0.055925708133261066
0.017778201000187278
-0.04601855599988273
0.08576313042936151
-0.015142730304231479
0.09667486842943152
-0.11437903396274195
0.03154875999993212
0.17754420396286863
-0.033326258429372084
0.07872531030428519
-0.021847708429429596
0.11038081000003447
0.04714607679983214
0.12147447913315464
0.091897663200191
-0.032005434525449974
0.07973592000003504
0.1908566645253672
0.065042086799836
0.032131250866722486
0.10175022320010277
0.03259078999995164
0.1577755984293235
0.049062429695714706
0.15184205842936532
-0.0692408539628241
0.06579746000018723
0.2002033139629325
-0.02278751842936469
0.07678765030426471
-0.03630470842937997
0.08353721000014167
0.008256916799894806
0.07112564913322776
0.030948093200150226
-0.10238438252542499
0.001198666000059451
0.10557077652536404
-0.025407035200048916
-0.061722159133204405
0.006432493200193529
-0.06236532999994114
0.06493858842933842
-0.039952070304232194
0.06824421642937276
-0.14589590496276017
-0.0027504830001033645
0.14062585536285038
-0.07282629842943088
0.03649965630421089
-0.06689496842941797
0.06217427999997605
-0.0046869732001897126
0.06548748913313772
0.03120753320019172
-0.0978480845253742
0.008247595999901955
0.11329285152532836
-0.018862519699998734
-0.05811786413330312
0.005396863200137143
-0.06945767999997035
0.050658528429359945
-0.062216530304241235
0.03764797842930657
-0.18490221396286927
-0.04977735000016657
0.08635538396297382
-0.13318814842935855
-0.02838608969573602
-0.13458576842937164
-0.006394039999916737
-0.07210304320009894
0.001298419133157376
