-0.2859531
-0.2921719
-0.2880625
-0.3003125
-0.30556249999999996
-0.3147344
-0.3321719
-0.3470156
-0.3560312
-0.3550156
-0.36396880000000004
-0.35785939999999994
-0.3613906
-0.34932810000000003
-0.344
-0.3355625
-0.3180469
-0.30528130000000003
-0.2961563
-0.29698440000000004
-0.2877344
-0.294
-0.2882188
-0.3007031
-0.3070938
-0.3154844
-0.33335940000000003
-0.34778129999999996
-0.3559688
-0.35340629999999995
-0.3634219
-0.3568125
-0.3628906
-0.3515781
-0.3457187
-0.3373281
-0.3187344
-0.30546880000000004
-0.2958281
-0.297
-0.2883906
-0.2949063
-0.28975
-0.3015781
-0.30710940000000003
-0.31575
-0.3325781
-0.3467813
-0.35612499999999997
-0.3555
-0.3642031
-0.35875
-0.3640625
-0.3515938
-0.3462344
-0.33803130000000003
-0.3190938
-0.3059688
-0.29679690000000003
-0.2970313
-0.2883281
-0.29445309999999997
-0.2894063
-0.3025156
-0.3075625
-0.3161875
-0.3340313
-0.3486875
-0.3570469
-0.35595309999999997
-0.3653906
-0.3597656
-0.36487499999999995
-0.35229689999999997
-0.34629689999999996
-0.33782809999999996
-0.3200625
-0.30623439999999996
-0.2974844
-0.2982813
-0.2888125
-0.29575
-0.2895781
-0.3014375
-0.3085469
-0.3166563
-0.33520310000000003
-0.3500156
-0.3585938
-0.3566406
-0.3668594
-0.36159379999999997
-0.3661719
-0.3542188
-0.3489688
-0.3404062
-0.32221879999999997
-0.3081094
-0.2988594
-0.3005625
-0.2902656
-0.2976094
-0.29282810000000004
-0.3042031
-0.3101719
-0.3183438
-0.33581249999999996
-0.35
-0.3574531
-0.357625
-0.3672031
-0.3607813
-0.365625
-0.3539063
-0.3474531
-0.3397344
-0.3220625
-0.30757809999999997
-0.2998594
-0.30095310000000003
-0.2903906
-0.2966406
-0.29198440000000003
-0.3044531
-0.3099688
-0.31673439999999997
-0.3354844
-0.3505625
-0.3593125
-0.3584219
-0.3675156
-0.36182810000000004
-0.36620310000000006
-0.3542813
-0.3478594
-0.3407656
-0.3232656
-0.30940629999999997
-0.2997344
-0.3005469
-0.2903125
-0.2972656
-0.2928125
-0.3047813
-0.31010940000000004
-0.31837499999999996
-0.3359063
-0.349875
-0.3586719
-0.3580469
-0.36810940000000003
-0.3617656
-0.36674999999999996
-0.3546563
-0.3487188
-0.3407344
-0.32207810000000003
-0.3096406
-0.30064060000000004
-0.3007344
-0.2914219
-0.29659379999999996
-0.29195309999999997
-0.3034375
-0.30940629999999997
-0.3187188
-0.33715629999999996
-0.35185940000000004
-0.36028129999999997
-0.3589063
-0.3686875
-0.36265630000000004
-0.3677031
-0.3553438
-0.3485156
-0.3410312
-0.3220313
-0.3090625
-0.2989844
-0.3015313
-0.2907656
-0.29625
-0.29196880000000003
-0.3040625
-0.3108281
-0.3187969
-0.33675
-0.3510938
-0.36010939999999997
-0.35978119999999997
-0.36901560000000005
-0.36248440000000004
-0.36785939999999995
-0.35553130000000005
-0.3495313
-0.34217190000000003
-0.3228125
-0.3094219
-0.3005469
-0.30043749999999997
-0.2906719
-0.2968438
-0.2926094
-0.305625
-0.3118125
-0.3186094
-0.33685940000000003
-0.35182810000000003
-0.3609688
-0.3602344
-0.36870310000000006
-0.3628281
-0.365875
-0.35553130000000005
-0.3492344
-0.34120310000000004
-0.32254689999999997
-0.3098281
-0.3018438
-0.30314060000000004
-0.2928438
-0.29810939999999997
-0.29314060000000003
-0.3044531
-0.3112188
-0.3180781
-0.33745310000000006
-0.3521406
-0.3593906
-0.3584688
-0.36853119999999995
-0.3632031
-0.36759369999999997
-0.35714060000000003
-0.3502344
-0.34375
-0.3247812
-0.3105781
-0.3018281
-0.3029219
-0.2931875
-0.2984531
-0.2941406
-0.30524999999999997
-0.3107344
-0.3181563
-0.33746879999999996
-0.3504531
-0.3591719
-0.35893749999999996
-0.3688281
-0.36325
-0.36785939999999995
-0.3560938
-0.3499531
-0.3431719
-0.3247656
-0.3108438
-0.3027031
-0.30225
-0.2929531
-0.2983438
-0.2940156
-0.3059844
-0.3118594
-0.3190156
-0.33803130000000003
-0.352375
-0.3611875
-0.3606563
-0.37024999999999997
-0.3654375
-0.36907809999999996
-0.35743749999999996
-0.3515625
-0.3445938
-0.3246719
-0.3115625
-0.3029063
-0.3042344
-0.2936719
-0.2981563
-0.2944063
-0.3063125
-0.3134688
-0.3199219
-0.3386406
-0.3525625
-0.3603438
-0.36009369999999996
-0.3704844
-0.36504689999999995
-0.3691406
-0.35775
-0.3514063
-0.3441406
-0.3246719
-0.3115938
-0.3027188
-0.3026875
-0.2937031
-0.29881250000000004
-0.29515630000000004
-0.3057188
-0.3130781
-0.3197969
-0.33875
-0.3529844
-0.3607031
-0.36114060000000003
-0.3706563
-0.36475
-0.3684531
-0.35790619999999995
-0.3515469
-0.34467190000000003
-0.3248281
-0.3117031
-0.3032188
-0.3032344
-0.2936875
-0.2998594
-0.29645309999999997
-0.306125
-0.31376560000000003
-0.3197031
-0.33975
-0.35393749999999996
-0.36217190000000005
-0.3607656
-0.3701094
-0.3644844
-0.368125
-0.35865630000000004
-0.35229689999999997
-0.34632809999999997
-0.3265781
-0.31425000000000003
-0.3043438
-0.3046875
-0.2951094
-0.3004219
-0.29698440000000004
-0.3075469
-0.3140781
-0.3208281
-0.33882809999999997
-0.3528281
-0.3609219
-0.36206249999999995
-0.371875
-0.36642189999999997
-0.37046880000000004
-0.3594687
-0.3532813
-0.3465781
-0.3273125
-0.3149688
-0.3076406
-0.3063594
-0.2954844
-0.3003906
-0.2974219
-0.3081406
-0.3154375
-0.3215156
-0.3397656
-0.35528129999999997
-0.36292189999999996
-0.363625
-0.374375
-0.36950000000000005
-0.3726094
-0.3625625
-0.35615630000000004
-0.35064059999999997
-0.3307813
-0.3170938
-0.3081406
-0.3085313
-0.2982344
-0.30409379999999997
-0.30045310000000003
-0.3113906
-0.3187813
-0.3246719
-0.3444063
-0.3585469
-0.3668438
-0.3660938
-0.37567189999999995
-0.37007809999999997
-0.37371879999999996
-0.360875
-0.3536406
-0.347625
-0.32715629999999996
-0.3140625
-0.3048594
-0.3033594
-0.2945938
-0.2994375
-0.2949844
-0.3043594
-0.3112969
-0.3176719
-0.3369063
-0.3515781
-0.36004689999999995
-0.3617188
-0.3713906
-0.3665469
-0.3705156
-0.36089060000000006
-0.3539219
-0.3477344
-0.32887500000000003
-0.3155469
-0.30774999999999997
-0.3071719
-0.2977969
-0.30274999999999996
-0.2992813
-0.30893750000000003
-0.3159844
-0.3216875
-0.3415625
-0.35614060000000003
-0.3636719
-0.3632031
-0.3734375
-0.36762500000000004
-0.3715625
-0.3624219
-0.3554531
-0.3499375
-0.329875
-0.3169219
-0.3086875
-0.3078281
-0.2983906
-0.3036875
-0.29912500000000003
-0.3093906
-0.31640630000000003
-0.32215629999999995
-0.34095309999999995
-0.35559379999999996
-0.3639063
-0.36493749999999997
-0.3748281
-0.368625
-0.3722656
-0.3624688
-0.3553281
-0.3498906
-0.33043750000000005
-0.3171563
-0.3081406
-0.307375
-0.2978438
-0.30325
-0.3002656
-0.3089688
-0.3171563
-0.3219219
-0.34132809999999997
-0.3563437
-0.3644844
-0.3641562
-0.37526560000000003
-0.3707969
-0.3740625
-0.3648438
-0.3577031
-0.35182810000000003
-0.331
-0.317375
-0.3090313
-0.3085625
-0.2987656
-0.30426559999999997
-0.30075
-0.3100313
-0.3188125
-0.3242969
-0.3441719
-0.35779690000000003
-0.3665625
-0.3664844
-0.37535939999999995
-0.370375
-0.3730313
-0.3639844
-0.35674999999999996
-0.3507187
-0.3307813
-0.3178438
-0.310125
-0.3102188
-0.2999063
-0.3050156
-0.302
-0.3111094
-0.3189375
-0.3247188
-0.34375
-0.3592031
-0.36737499999999995
-0.3674063
-0.3766406
-0.37056249999999996
-0.37323439999999997
-0.3636875
-0.3575313
-0.3524063
-0.3325313
-0.3189219
-0.3106406
-0.3102813
-0.3009063
-0.3056719
-0.3027656
-0.31162500000000004
-0.3194844
-0.32403129999999997
-0.3439844
-0.3579844
-0.36529690000000004
-0.3661094
-0.37560940000000004
-0.37151560000000006
-0.3748594
-0.3667188
-0.35871879999999995
-0.354375
-0.33342190000000005
-0.3201563
-0.3120469
-0.3111875
-0.301875
-0.3062656
-0.3026563
-0.3121719
-0.3201094
-0.3247656
-0.34431249999999997
-0.35878129999999997
-0.3663594
-0.3677031
-0.37673439999999997
-0.37225
-0.37567189999999995
-0.36700000000000005
-0.35871879999999995
-0.3542813
-0.3354531
-0.32204689999999997
-0.31325
-0.3118594
-0.3025469
-0.3069688
-0.3032656
-0.3125938
-0.32067189999999995
-0.3254219
-0.34557810000000005
-0.3594063
-0.3681406
-0.3686719
-0.3780938
-0.3733125
-0.376125
-0.3675156
-0.36024999999999996
-0.35695309999999997
-0.3359063
-0.3224219
-0.3137188
-0.3133125
-0.30328130000000003
-0.3081563
-0.30426559999999997
-0.3131875
-0.321875
-0.3274219
-0.34700000000000003
-0.3615469
-0.3692656
-0.37029690000000004
-0.37923439999999997
-0.3749688
-0.3779531
-0.369375
-0.3605781
-0.35648440000000003
-0.33581249999999996
-0.32282809999999995
-0.3148281
-0.3138438
-0.3055938
-0.3098125
-0.3077344
-0.31542190000000003
-0.3245625
-0.3294375
-0.3494375
-0.36237499999999995
-0.3700156
-0.3709219
-0.3798281
-0.375
-0.3772656
-0.37007809999999997
-0.3616719
-0.3571563
-0.33649999999999997
-0.3243125
-0.3158594
-0.3150938
-0.3052656
-0.309375
-0.3065
-0.31507809999999997
-0.3234063
-0.3280156
-0.3476875
-0.36115630000000004
-0.3699688
-0.37071869999999996
-0.37970309999999996
-0.3749688
-0.37720309999999996
-0.3698594
-0.3614063
-0.3579531
-0.3363594
-0.32353119999999996
-0.31507809999999997
-0.31376560000000003
-0.3036875
-0.3090313
-0.305625
-0.3129531
-0.3222344
-0.32603119999999997
-0.3460938
-0.3599688
-0.3664844
-0.3692969
-0.3783906
-0.3739844
-0.3766094
-0.369625
-0.3609375
-0.3566719
-0.33575000000000005
-0.32176560000000004
-0.3131406
-0.31143750000000003
-0.3030156
-0.308
-0.3047813
-0.312125
-0.3204688
-0.32523440000000003
-0.34450000000000003
-0.359
-0.36706249999999996
-0.36806249999999996
-0.3783281
-0.37328130000000004
-0.3761719
-0.3680781
-0.3592188
-0.3554844
-0.33525
-0.3219531
-0.31292190000000003
-0.3117813
-0.30207809999999996
-0.3073594
-0.3045313
-0.3110469
-0.3202031
-0.3250781
-0.3448281
-0.3588594
-0.36662500000000003
-0.3683594
-0.37789059999999997
-0.3733281
-0.37540619999999997
-0.36762500000000004
-0.359125
-0.3547656
-0.3350937
-0.32220309999999996
-0.31325
-0.3117969
-0.3031875
-0.3070313
-0.3049063
-0.3121563
-0.32098439999999995
-0.3261563
-0.34612499999999996
-0.35887500000000006
-0.3669844
-0.3680156
-0.377
-0.3734375
-0.3756406
-0.3681563
-0.3589844
-0.3546875
-0.33399999999999996
-0.3211719
-0.314375
-0.31242190000000003
-0.3039375
-0.308875
-0.3072031
-0.3128281
-0.3215625
-0.32557810000000004
-0.34564059999999996
-0.35862499999999997
-0.36726559999999997
-0.3686719
-0.37723439999999997
-0.3729688
-0.37604689999999996
-0.3688125
-0.3591562
-0.35589060000000006
-0.336
-0.3227813
-0.3145938
-0.3140938
-0.3041406
-0.3082031
-0.3053281
-0.3122969
-0.32153129999999996
-0.32504689999999997
-0.34575
-0.35909379999999996
-0.3670469
-0.37029690000000004
-0.37926560000000004
-0.37456249999999996
-0.3766719
-0.3705156
-0.36095309999999997
-0.3575
-0.3375937
-0.3237656
-0.31475000000000003
-0.313
-0.3042188
-0.3086875
-0.307125
-0.3123125
-0.32165619999999995
-0.3260156
-0.3463594
-0.3610156
-0.3686875
-0.36950000000000005
-0.3787344
-0.3744687
-0.3773438
-0.37182810000000005
-0.3614844
-0.35760939999999997
-0.336875
-0.3231406
-0.3148125
-0.313875
-0.3054063
-0.310125
-0.3079375
-0.3137188
-0.3227813
-0.3266875
-0.3468438
-0.3609688
-0.36876559999999997
-0.3706563
-0.3791875
-0.3751563
-0.3772812
-0.3708281
-0.3610938
-0.35692189999999996
-0.33698439999999996
-0.3244219
-0.31626560000000004
-0.31578130000000004
-0.3064063
-0.3104688
-0.30892189999999997
-0.3145469
-0.32354689999999997
-0.32678130000000005
-0.3466719
-0.3607031
-0.3692969
-0.37060940000000003
-0.3792969
-0.3756875
-0.377
-0.3716719
-0.36160939999999997
-0.35685940000000005
-0.3367656
-0.3248594
-0.3159688
-0.31492190000000003
-0.3060625
-0.3101563
-0.3085625
-0.3140781
-0.32403129999999997
-0.328125
-0.3485781
-0.3623906
-0.3709844
-0.370875
-0.3793125
-0.3755313
-0.3782031
-0.3721563
-0.3622969
-0.3585312
-0.3386094
-0.3261563
-0.3184219
-0.31578130000000004
-0.3068438
-0.3116875
-0.3086563
-0.3150469
-0.3240469
-0.3287031
-0.34825
-0.3614063
-0.36907809999999996
-0.37125
-0.38023440000000003
-0.376375
-0.3782031
-0.373
-0.3636875
-0.3603438
-0.34025
-0.3269531
-0.317625
-0.316375
-0.3073125
-0.3109688
-0.3088438
-0.31376560000000003
-0.32489060000000003
-0.3277813
-0.3474844
-0.361875
-0.3703438
-0.3717344
-0.38018749999999996
-0.37615630000000005
-0.37895310000000004
-0.3728906
-0.3633594
-0.3590469
-0.339125
-0.3255313
-0.316625
-0.3152344
-0.3069219
-0.3106719
-0.30912500000000004
-0.3141563
-0.3243594
-0.32928130000000005
-0.3485469
-0.36143749999999997
-0.3691719
-0.37078130000000004
-0.3803438
-0.37614060000000005
-0.3789375
-0.37340629999999997
-0.3634844
-0.3585938
-0.33910939999999995
-0.3261406
-0.31693750000000004
-0.3157031
-0.307125
-0.3111406
-0.30875
-0.3136719
-0.3241406
-0.3290156
-0.34848439999999997
-0.3618438
-0.370875
-0.37190629999999997
-0.38107810000000003
-0.3774375
-0.37903129999999996
-0.3744219
-0.3636875
-0.3595469
-0.3387813
-0.32720309999999997
-0.3174063
-0.31654689999999996
-0.3082969
-0.3123594
-0.3101406
-0.3154688
-0.325375
-0.32848439999999995
-0.34865630000000003
-0.36259369999999996
-0.370625
-0.37237499999999996
-0.3808281
-0.3759375
-0.37903129999999996
-0.3741719
-0.3636875
-0.3604531
-0.3412656
-0.326625
-0.3189531
-0.31725000000000003
-0.3081875
-0.3128594
-0.3121719
-0.3166094
-0.32667189999999996
-0.3302969
-0.3497031
-0.3642031
-0.3719531
-0.3740469
-0.38254689999999997
-0.3786406
-0.37992190000000003
-0.37592190000000003
-0.36504689999999995
-0.36114060000000003
-0.34117190000000003
-0.3281406
-0.319375
-0.3180313
-0.3085469
-0.3124531
-0.3112188
-0.31626560000000004
-0.3261094
-0.3292969
-0.3492188
-0.36321869999999995
-0.3727031
-0.37395310000000004
-0.38293750000000004
-0.3783438
-0.3805156
-0.3760781
-0.36578130000000003
-0.3615625
-0.34234380000000003
-0.3292344
-0.3203281
-0.3179375
-0.3101406
-0.3139688
-0.3127344
-0.3175469
-0.3280625
-0.3322188
-0.3519063
-0.3657656
-0.37403129999999996
-0.3760625
-0.3843125
-0.38087499999999996
-0.3826406
-0.37757809999999997
-0.3674688
-0.3622969
-0.3432031
-0.330875
-0.3219219
-0.3206875
-0.311875
-0.3143594
-0.31292190000000003
-0.3176719
-0.3285781
-0.33184379999999997
-0.3514219
-0.3653438
-0.3749688
-0.3754688
-0.3840469
-0.3809531
-0.3817188
-0.37790619999999997
-0.3672812
-0.3644375
-0.3441406
-0.33067189999999996
-0.3218594
-0.3207031
-0.3114688
-0.31625
-0.3148281
-0.31770309999999996
-0.3290625
-0.33282809999999996
-0.3521875
-0.366
-0.37342190000000003
-0.37556249999999997
-0.3844063
-0.3811094
-0.3826563
-0.3795
-0.36854689999999996
-0.3636719
-0.34489060000000005
-0.33184379999999997
-0.3233281
-0.3208906
-0.3123281
-0.3156094
-0.3144844
-0.3185469
-0.33026560000000005
-0.3334063
-0.3515469
-0.36575
-0.3739844
-0.37575000000000003
-0.3842031
-0.3807656
-0.38193750000000004
-0.37896880000000005
-0.3677344
-0.3649063
-0.344875
-0.33175
-0.32271880000000003
-0.3217344
-0.3128125
-0.3153438
-0.3149844
-0.3179531
-0.32887500000000003
-0.3325469
-0.3519063
-0.3655313
-0.37492190000000003
-0.3759531
-0.384625
-0.3823281
-0.38310940000000004
-0.37956249999999997
-0.36790619999999996
-0.3649219
-0.3447031
-0.33246879999999995
-0.3232813
-0.321375
-0.31309380000000003
-0.3161563
-0.3157344
-0.3198125
-0.33118749999999997
-0.3352344
-0.3545313
-0.36806249999999996
-0.37751559999999995
-0.3796719
-0.3881406
-0.385
-0.3852813
-0.3825781
-0.37174999999999997
-0.368375
-0.3482656
-0.3351406
-0.32575000000000004
-0.3240781
-0.31657810000000003
-0.31876560000000004
-0.3183281
-0.32023440000000003
-0.3295313
-0.33184379999999997
-0.3503438
-0.365
-0.37423439999999997
-0.37471879999999996
-0.3827969
-0.3803125
-0.37842190000000003
-0.37464060000000005
-0.3623906
-0.3584375
-0.3384375
-0.3264219
-0.3175
-0.31590630000000003
-0.3090625
-0.3122813
-0.3131094
-0.3162969
-0.32804690000000003
-0.33135939999999997
-0.35115630000000003
-0.3644844
-0.3738125
-0.3766406
-0.38549999999999995
-0.38268749999999996
-0.383125
-0.38146880000000005
-0.36981250000000004
-0.36615630000000005
-0.3467031
-0.3337656
-0.32459380000000004
-0.3219219
-0.3135156
-0.3166875
-0.3171875
-0.3192344
-0.33034379999999997
-0.33384369999999997
-0.35275
-0.3667969
-0.37403129999999996
-0.37745310000000004
-0.3863125
-0.38426560000000004
-0.38331249999999994
-0.382
-0.37042189999999997
-0.3659844
-0.34682810000000003
-0.33521880000000004
-0.3251094
-0.32426560000000004
-0.315625
-0.31771879999999997
-0.318875
-0.32118749999999996
-0.3327969
-0.3360312
-0.35424999999999995
-0.3683594
-0.37745310000000004
-0.37926560000000004
-0.3872188
-0.38618749999999996
-0.38506250000000003
-0.3832969
-0.3712969
-0.3673906
-0.34893749999999996
-0.3360938
-0.3268906
-0.3245156
-0.31578130000000004
-0.3173594
-0.31823440000000003
-0.3199375
-0.3332344
-0.337
-0.3556875
-0.36943750000000003
-0.3783906
-0.3817031
-0.38957810000000004
-0.38793750000000005
-0.3863281
-0.3846875
-0.3734375
-0.3694844
-0.3504688
-0.33671880000000004
-0.3277031
-0.32526560000000004
-0.3175156
-0.31971879999999997
-0.32035939999999996
-0.3217344
-0.3340313
-0.33770310000000003
-0.3570781
-0.3700313
-0.37992190000000003
-0.381875
-0.39018749999999996
-0.38928130000000005
-0.3864844
-0.38426560000000004
-0.37342190000000003
-0.3699219
-0.3507813
-0.3380625
-0.3293594
-0.3272812
-0.3194531
-0.3204219
-0.32220309999999996
-0.32276560000000004
-0.33543750000000006
-0.33899999999999997
-0.3575
-0.3712031
-0.38060940000000004
-0.3823594
-0.3906094
-0.38975000000000004
-0.3884688
-0.3888438
-0.375625
-0.371875
-0.3518438
-0.33870310000000003
-0.3299844
-0.3254219
-0.3177813
-0.3192813
-0.3215
-0.32275
-0.3353906
-0.3379531
-0.3567656
-0.3712813
-0.379
-0.38337499999999997
-0.3911406
-0.38989060000000003
-0.3876094
-0.3869688
-0.37456249999999996
-0.3716719
-0.3530625
-0.33918750000000003
-0.3293594
-0.3265938
-0.3189375
-0.3196406
-0.3224844
-0.3229531
-0.3349375
-0.33915619999999996
-0.358125
-0.371
-0.3804531
-0.3834688
-0.39081249999999995
-0.3890156
-0.3875938
-0.3871875
-0.37432810000000005
-0.3711875
-0.3520469
-0.3386719
-0.329625
-0.32684379999999996
-0.31856249999999997
-0.32121879999999997
-0.3221094
-0.3233438
-0.3361719
-0.3391406
-0.3572031
-0.371375
-0.3806875
-0.38371879999999997
-0.39176560000000005
-0.38990630000000004
-0.38928130000000005
-0.3879063
-0.3746719
-0.37125
-0.3527656
-0.3396406
-0.33043750000000005
-0.32714060000000006
-0.3195
-0.3215625
-0.3243281
-0.3231875
-0.3357031
-0.33990630000000005
-0.35809379999999996
-0.37190629999999997
-0.3825781
-0.3843125
-0.3914219
-0.3904688
-0.3880156
-0.3885781
-0.37714060000000005
-0.37321869999999996
-0.3532813
-0.34096879999999996
-0.3309688
-0.3282969
-0.3215781
-0.3221875
-0.32465629999999995
-0.32603119999999997
-0.3376406
-0.34059379999999995
-0.35932810000000004
-0.37268749999999995
-0.3805156
-0.38539059999999997
-0.39171880000000003
-0.391
-0.38989060000000003
-0.38879689999999995
-0.3770313
-0.37359380000000003
-0.35478119999999996
-0.34089060000000004
-0.33165619999999996
-0.3284531
-0.3212813
-0.3224375
-0.3240469
-0.3234375
-0.33625
-0.3394063
-0.3580469
-0.3706563
-0.38056249999999997
-0.3842969
-0.3912813
-0.39001559999999996
-0.3876094
-0.3891563
-0.37590629999999997
-0.37276560000000003
-0.3538437
-0.34089060000000004
-0.3306563
-0.3278125
-0.31975000000000003
-0.3202188
-0.323625
-0.3225781
-0.3357031
-0.33910939999999995
-0.3570938
-0.37078130000000004
-0.3797656
-0.3827813
-0.3900938
-0.38928130000000005
-0.3876094
-0.38831249999999995
-0.3760781
-0.37220309999999995
-0.35376559999999996
-0.33959380000000006
-0.3300781
-0.3248438
-0.3181563
-0.31904689999999997
-0.32135939999999996
-0.32121879999999997
-0.33362499999999995
-0.33684379999999997
-0.35424999999999995
-0.36817189999999994
-0.3779531
-0.3816406
-0.3895625
-0.3880625
-0.3854219
-0.3859531
-0.3738125
-0.3692031
-0.35100000000000003
-0.33835940000000003
-0.3276406
-0.3251563
-0.3180469
-0.3184688
-0.3216875
-0.32004689999999997
-0.33335940000000003
-0.33725
-0.35435940000000005
-0.3690625
-0.3786094
-0.38175
-0.3890938
-0.3885313
-0.3847969
-0.3865
-0.373625
-0.36987499999999995
-0.3518125
-0.33884369999999997
-0.3295625
-0.32589060000000003
-0.3190156
-0.3195313
-0.3218594
-0.3203281
-0.33415619999999996
-0.3373125
-0.355625
-0.3695781
-0.37956249999999997
-0.383625
-0.3893594
-0.3889688
-0.38609380000000004
-0.38714060000000006
-0.3753438
-0.3710625
-0.35309379999999996
-0.33989060000000004
-0.331
-0.32603119999999997
-0.3189219
-0.3198281
-0.32273440000000003
-0.3218125
-0.3348438
-0.3385938
-0.3560938
-0.37078130000000004
-0.37971879999999997
-0.3824219
-0.38959380000000005
-0.3893125
-0.38598439999999995
-0.3880625
-0.37507809999999997
-0.37237499999999996
-0.35498440000000003
-0.3401094
-0.33
-0.3274844
-0.3199844
-0.3203438
-0.32375
-0.3215156
-0.3348125
-0.3386875
-0.3563281
-0.36995310000000003
-0.37970309999999996
-0.38368749999999996
-0.3911563
-0.3906094
-0.3879688
-0.3895625
-0.376375
-0.3724063
-0.35498440000000003
-0.3414531
-0.3318281
-0.3287813
-0.32107810000000003
-0.3203438
-0.3230625
-0.3225
-0.3364219
-0.33979689999999996
-0.35674999999999996
-0.3711875
-0.3811094
-0.386375
-0.39271880000000003
-0.3919219
-0.3883438
-0.3894531
-0.375375
-0.3717344
-0.3544844
-0.3402969
-0.3302969
-0.3274375
-0.32106250000000003
-0.3207656
-0.32506250000000003
-0.32271880000000003
-0.33667189999999997
-0.3403125
-0.35775
-0.37242190000000003
-0.3826719
-0.38501559999999996
-0.39075000000000004
-0.3913438
-0.38799999999999996
-0.3894688
-0.37635939999999996
-0.3725313
-0.354
-0.34125
-0.33140630000000004
-0.328125
-0.32129689999999994
-0.3219844
-0.3257813
-0.3231875
-0.3371406
-0.3410469
-0.358
-0.37174999999999997
-0.38182810000000006
-0.3855313
-0.39089060000000003
-0.39154690000000003
-0.3880313
-0.3906875
-0.37690629999999997
-0.3743125
-0.35646880000000003
-0.34346879999999996
-0.33370310000000003
-0.32839060000000003
-0.32167189999999996
-0.3213281
-0.3258594
-0.322875
-0.3361406
-0.33948439999999996
-0.35657809999999995
-0.37104689999999996
-0.38043750000000004
-0.3842344
-0.39153129999999997
-0.3922969
-0.3884531
-0.3910469
-0.37737499999999996
-0.3734531
-0.35659379999999996
-0.3428906
-0.33314059999999995
-0.3301406
-0.32359380000000004
-0.3220313
-0.3265938
-0.32310940000000005
-0.33681249999999996
-0.3401406
-0.3575781
-0.37076560000000003
-0.38134369999999995
-0.3855469
-0.3923281
-0.39207810000000004
-0.3885156
-0.3908281
-0.3777188
-0.3746719
-0.3561094
-0.342125
-0.3329219
-0.3284063
-0.3209688
-0.3207813
-0.32496879999999995
-0.3215938
-0.336
-0.34057810000000005
-0.358125
-0.3726094
-0.3812656
-0.3854063
-0.39207810000000004
-0.39246879999999995
-0.3882344
-0.3911563
-0.3772812
-0.3738125
-0.3564531
-0.34225
-0.3327344
-0.3282187
-0.3219844
-0.3216094
-0.3263281
-0.32339060000000003
-0.3369375
-0.34134369999999997
-0.3578125
-0.37245310000000004
-0.3818594
-0.3851563
-0.39139060000000003
-0.3932656
-0.3875781
-0.39032809999999996
-0.37731250000000005
-0.3728438
-0.3559219
-0.3422031
-0.33285939999999997
-0.3287656
-0.32254689999999997
-0.32145310000000005
-0.32714060000000006
-0.3233594
-0.33667189999999997
-0.341625
-0.35845309999999997
-0.3716406
-0.38049999999999995
-0.3854063
-0.3906094
-0.39167189999999996
-0.3872969
-0.3899844
-0.3762344
-0.3730313
-0.3561719
-0.34215629999999997
-0.33303130000000003
-0.32899999999999996
-0.3222812
-0.32106250000000003
-0.3262813
-0.3221094
-0.3366406
-0.339875
-0.35765630000000004
-0.3709688
-0.3807344
-0.3847656
-0.391625
-0.3924375
-0.3866094
-0.3906563
-0.3756875
-0.37178130000000004
-0.3549531
-0.3426875
-0.3334531
-0.3300781
-0.3219531
-0.32003129999999996
-0.3265156
-0.3226406
-0.33685940000000003
-0.3404531
-0.3579844
-0.3717969
-0.3812813
-0.385375
-0.39049999999999996
-0.3921875
-0.3865156
-0.3901094
-0.3758594
-0.37174999999999997
-0.3540625
-0.3406094
-0.33203130000000003
-0.3273281
-0.3216875
-0.319875
-0.32495310000000005
-0.3209688
-0.3357813
-0.3392813
-0.3560938
-0.3713125
-0.38012500000000005
-0.3842031
-0.3909375
-0.3920156
-0.38746879999999995
-0.3909688
-0.3765469
-0.3721875
-0.35484380000000004
-0.3413594
-0.331
-0.3285938
-0.3219219
-0.3205938
-0.3257813
-0.3223281
-0.33668750000000003
-0.340625
-0.35743749999999996
-0.37134369999999994
-0.3818594
-0.3851094
-0.3904688
-0.39240630000000004
-0.38725000000000004
-0.39098439999999995
-0.3770781
-0.3735156
-0.35668750000000005
-0.3420938
-0.3312656
-0.327
-0.32135939999999996
-0.3213125
-0.32675
-0.3217969
-0.33589060000000004
-0.3400625
-0.35712499999999997
-0.37146880000000004
-0.38029690000000005
-0.38503129999999997
-0.39049999999999996
-0.3919219
-0.387
-0.39075000000000004
-0.3764844
-0.37290619999999997
-0.3563437
-0.34270310000000004
-0.3332187
-0.32921880000000003
-0.3236563
-0.32107810000000003
-0.32807810000000004
-0.3233281
-0.33746879999999996
-0.3410156
-0.3577344
-0.3715625
-0.381125
-0.3863438
-0.39245310000000005
-0.39399999999999996
-0.3880625
-0.3939688
-0.3795
-0.37576560000000003
-0.3591562
-0.3446406
-0.33495310000000006
-0.3320625
-0.3261406
-0.32434379999999996
-0.3300781
-0.32526560000000004
-0.33990630000000005
-0.3437656
-0.3616719
-0.37598439999999994
-0.3859688
-0.3889375
-0.3947813
-0.3954219
-0.38903129999999997
-0.3931094
-0.377
-0.3731875
-0.35498440000000003
-0.3407656
-0.33053130000000003
-0.32504689999999997
-0.319625
-0.3175625
-0.3231875
-0.31856249999999997
-0.3314375
-0.3361563
-0.35228119999999996
-0.3672969
-0.37768749999999995
-0.3830313
-0.38928130000000005
-0.3913281
-0.3870313
-0.3915156
-0.37721879999999997
-0.3736875
-0.35731250000000003
-0.3435938
-0.3339219
-0.3306875
-0.324
-0.3231875
-0.32856250000000004
-0.32339060000000003
-0.3384688
-0.342125
-0.3584844
-0.3723438
-0.38273440000000003
-0.3872813
-0.39276560000000005
-0.3939219
-0.3879531
-0.3932656
-0.3789844
-0.37625
-0.3592813
-0.34446869999999996
-0.3338125
-0.3282344
-0.3226563
-0.3211094
-0.32817189999999996
-0.3229844
-0.3370156
-0.3406094
-0.35801560000000004
-0.37153129999999995
-0.3812813
-0.3865938
-0.39106250000000004
-0.3937188
-0.3879688
-0.3925781
-0.3783906
-0.3747656
-0.35765630000000004
-0.3434219
-0.33448439999999996
-0.33064059999999995
-0.32428130000000005
-0.32176560000000004
-0.3280938
-0.3229219
-0.3372656
-0.3399531
-0.3557813
-0.3696875
-0.3804844
-0.38543750000000004
-0.3914688
-0.3932813
-0.3872188
-0.3916563
-0.3785
-0.375
-0.3581563
-0.3441406
-0.3340938
-0.3299219
-0.3247188
-0.322125
-0.3287813
-0.3229531
-0.33782809999999996
-0.34096879999999996
-0.3572031
-0.3704531
-0.38182810000000006
-0.38604689999999997
-0.3925938
-0.394375
-0.38753129999999997
-0.39268749999999997
-0.3775937
-0.37507809999999997
-0.3581719
-0.34410939999999995
-0.3335938
-0.33
-0.32417189999999996
-0.32118749999999996
-0.32831249999999995
-0.3231875
-0.3375625
-0.3407656
-0.3569375
-0.37121879999999996
-0.3815
-0.3865625
-0.3914531
-0.3939375
-0.38746879999999995
-0.3931563
-0.3782031
-0.3746719
-0.3591562
-0.3449531
-0.3342813
-0.33101559999999997
-0.32454689999999997
-0.3218594
-0.3276406
-0.3227813
-0.33715629999999996
-0.3418438
-0.3568125
-0.3705469
-0.38103119999999996
-0.3853438
-0.3912031
-0.39379689999999995
-0.38831249999999995
-0.3931875
-0.378625
-0.3755781
-0.35910939999999997
-0.3440313
-0.3332187
-0.3297344
-0.3239844
-0.3225937
-0.32946869999999995
-0.3237031
-0.33803130000000003
-0.342125
-0.35832810000000004
-0.37153129999999995
-0.3819844
-0.3869844
-0.39220309999999997
-0.3944688
-0.38793750000000005
-0.3929844
-0.3785156
-0.37621879999999996
-0.36
-0.34700000000000003
-0.33625
-0.3317969
-0.32623440000000004
-0.3240156
-0.33075000000000004
-0.32496879999999995
-0.33834380000000003
-0.3419531
-0.3578281
-0.3718125
-0.382875
-0.387125
-0.39275
-0.3958438
-0.3887656
-0.39475
-0.3799375
-0.3762656
-0.36040619999999995
-0.34615630000000003
-0.335625
-0.33268749999999997
-0.3267031
-0.3244844
-0.3307656
-0.3255156
-0.3396406
-0.34334380000000003
-0.3592344
-0.37325
-0.3837656
-0.3881406
-0.39373440000000004
-0.39612499999999995
-0.39018749999999996
-0.395625
-0.3815781
-0.3775625
-0.3615313
-0.34798439999999997
-0.3370625
-0.3331094
-0.3272812
-0.32403129999999997
-0.3322656
-0.32587499999999997
-0.34089060000000004
-0.3444531
-0.3600313
-0.37426560000000003
-0.3850781
-0.3897969
-0.39475
-0.397375
-0.3918125
-0.3970156
-0.3822969
-0.3782031
-0.3632031
-0.3479688
-0.3372031
-0.33284379999999997
-0.3273281
-0.3251563
-0.3318906
-0.3257813
-0.3410781
-0.3443281
-0.360375
-0.37456249999999996
-0.38470309999999996
-0.39021880000000003
-0.3943125
-0.3978125
-0.3903906
-0.39521880000000004
-0.38092190000000004
-0.3767969
-0.36295310000000003
-0.34778129999999996
-0.3380625
-0.33307810000000004
-0.32756250000000003
-0.32403129999999997
-0.3318906
-0.32737499999999997
-0.3414219
-0.3450313
-0.3598594
-0.3736094
-0.38385939999999996
-0.38975000000000004
-0.3947031
-0.3964688
-0.3894375
-0.39557810000000004
-0.381
-0.3771719
-0.3614219
-0.3476875
-0.3385312
-0.3338281
-0.32799999999999996
-0.32521880000000003
-0.331875
-0.3266406
-0.3401094
-0.344
-0.359625
-0.3730156
-0.3838281
-0.3889844
-0.39399999999999996
-0.39740630000000005
-0.3902813
-0.3961406
-0.38253129999999996
-0.3787031
-0.3626406
-0.3488281
-0.33835940000000003
-0.3333438
-0.32776560000000005
-0.3255156
-0.3334531
-0.3281406
-0.3415938
-0.3447656
-0.3607813
-0.3740625
-0.3844844
-0.39026560000000005
-0.3960313
-0.3985781
-0.3920313
-0.3972188
-0.38310940000000004
-0.3796875
-0.3650625
-0.3495781
-0.33951560000000003
-0.3334063
-0.328375
-0.3258594
-0.33228119999999994
-0.3269219
-0.3415313
-0.34525
-0.3617188
-0.3753125
-0.3868125
-0.3913281
-0.3963906
-0.399125
-0.39314059999999995
-0.3987813
-0.3842344
-0.37995310000000004
-0.36481250000000004
-0.3497656
-0.33942189999999994
-0.3356094
-0.3304219
-0.3272812
-0.3345625
-0.32775
-0.34239060000000004
-0.3465313
-0.3626406
-0.3771563
-0.38751559999999996
-0.3922969
-0.3967969
-0.3996875
-0.3930938
-0.3987656
-0.3844219
-0.38026560000000004
-0.3656563
-0.35059379999999996
-0.34017189999999997
-0.33490630000000005
-0.3307656
-0.32817189999999996
-0.33496879999999996
-0.3295313
-0.34299999999999997
-0.3469531
-0.3619063
-0.376375
-0.387125
-0.39271880000000003
-0.3982031
-0.40137500000000004
-0.3942969
-0.3995469
-0.38464060000000005
-0.381125
-0.36631250000000004
-0.3522656
-0.342375
-0.33751559999999997
-0.3326406
-0.33018749999999997
-0.337
-0.3302344
-0.34345309999999996
-0.3475469
-0.3624063
-0.3767031
-0.3882344
-0.3931563
-0.3981875
-0.40101559999999997
-0.3949219
-0.40053130000000003
-0.38639060000000003
-0.3820313
-0.3670156
-0.3521406
-0.34175
-0.3365313
-0.3318906
-0.32875
-0.33634369999999997
-0.329875
-0.3435781
-0.34801560000000004
-0.3636875
-0.3777344
-0.3882188
-0.3945625
-0.39917189999999997
-0.4020781
-0.3950938
-0.4004375
-0.38707810000000004
-0.38254689999999997
-0.36737499999999995
-0.3523594
-0.34315629999999997
-0.33775
-0.3324844
-0.3290625
-0.33581249999999996
-0.33032809999999996
-0.34442189999999995
-0.34807810000000006
-0.3631406
-0.3781563
-0.38875
-0.39375
-0.3989531
-0.4021406
-0.3958438
-0.4013594
-0.38671880000000003
-0.3826563
-0.3675313
-0.3538281
-0.3427969
-0.3384688
-0.334125
-0.3312813
-0.33703130000000003
-0.33057810000000004
-0.34581249999999997
-0.3498594
-0.3653281
-0.378625
-0.3890938
-0.3948438
-0.39990630000000005
-0.40303130000000004
-0.3960313
-0.4010938
-0.38646880000000006
-0.3839375
-0.3684844
-0.3544063
-0.34348439999999997
-0.3380469
-0.3344531
-0.3319531
-0.33803130000000003
-0.3326406
-0.3473125
-0.35168750000000004
-0.36657809999999996
-0.38035939999999996
-0.3904844
-0.39660939999999995
-0.401
-0.4042031
-0.39768749999999997
-0.4023594
-0.3886094
-0.3844844
-0.3690625
-0.3549063
-0.34478119999999995
-0.33978119999999995
-0.33404690000000004
-0.33149999999999996
-0.3389844
-0.33375
-0.34668750000000004
-0.350875
-0.3659688
-0.3790938
-0.3906875
-0.39585940000000003
-0.40032809999999996
-0.4043281
-0.398125
-0.4039219
-0.3896719
-0.3852969
-0.3711875
-0.356625
-0.3461875
-0.34096879999999996
-0.33620310000000003
-0.33299999999999996
-0.3393438
-0.33282809999999996
-0.3471094
-0.3507344
-0.3663906
-0.380375
-0.39125
-0.39612499999999995
-0.4010781
-0.4044531
-0.39831249999999996
-0.405125
-0.39025
-0.3861563
-0.3713906
-0.357375
-0.34682810000000003
-0.34068750000000003
-0.33637500000000004
-0.33325000000000005
-0.34026560000000006
-0.33434379999999997
-0.34867190000000003
-0.3529531
-0.36825
-0.38176560000000004
-0.3933438
-0.3988594
-0.40362499999999996
-0.40725
-0.40017189999999997
-0.4054531
-0.39106250000000004
-0.3865469
-0.3728281
-0.35901560000000005
-0.3486875
-0.3426563
-0.3380469
-0.33475
-0.34085940000000003
-0.3349844
-0.35004689999999994
-0.3536406
-0.3688906
-0.3829688
-0.3936094
-0.3997344
-0.40418750000000003
-0.4058594
-0.40049999999999997
-0.4063906
-0.39112499999999994
-0.386875
-0.37220309999999995
-0.35870310000000005
-0.3476406
-0.3413906
-0.3375937
-0.3346094
-0.3422188
-0.3364688
-0.3504688
-0.3540938
-0.368625
-0.3827188
-0.3941875
-0.4003125
-0.40442189999999995
-0.40815629999999997
-0.4009688
-0.4072656
-0.3925469
-0.3885
-0.37323439999999997
-0.3603281
-0.3499063
-0.3438437
-0.3392656
-0.3361719
-0.34339060000000005
-0.33698439999999996
-0.35057810000000006
-0.35473439999999995
-0.3697188
-0.3836406
-0.3940156
-0.3996875
-0.4042031
-0.4073125
-0.4009063
-0.4071406
-0.3930938
-0.38885939999999997
-0.37348439999999994
-0.360875
-0.3500313
-0.3453438
-0.3402344
-0.3359219
-0.3436406
-0.3378125
-0.35228119999999996
-0.3557344
-0.36964060000000004
-0.38254689999999997
-0.39534379999999997
-0.4019375
-0.4050313
-0.40845309999999996
-0.4024531
-0.4085938
-0.3947344
-0.3902344
-0.3749375
-0.3607656
-0.35040619999999995
-0.34584380000000003
-0.3423125
-0.3378594
-0.34446869999999996
-0.338125
-0.3532813
-0.35725
-0.37125
-0.3851719
-0.3959375
-0.4012188
-0.40549999999999997
-0.4104531
-0.4039219
-0.4095469
-0.39557810000000004
-0.3916563
-0.37614060000000005
-0.3625781
-0.3522656
-0.3463125
-0.3435
-0.33815629999999997
-0.3459219
-0.33921880000000004
-0.3537344
-0.3586875
-0.3733438
-0.38671880000000003
-0.3975313
-0.40348439999999997
-0.40712499999999996
-0.4100625
-0.4037813
-0.4100781
-0.3964219
-0.39240630000000004
-0.37742190000000003
-0.36542189999999997
-0.3543125
-0.3475625
-0.3436094
-0.34028129999999995
-0.34729689999999996
-0.341625
-0.3560469
-0.36
-0.37495310000000004
-0.3880156
-0.3997813
-0.40629689999999996
-0.4100625
-0.4135313
-0.40674999999999994
-0.4126406
-0.39925
-0.39637500000000003
-0.3811563
-0.3675781
-0.3567188
-0.3507187
-0.3475781
-0.3435156
-0.35059379999999996
-0.3448594
-0.35876559999999996
-0.36334380000000005
-0.37731250000000005
-0.3899219
-0.4
-0.4047813
-0.4075469
-0.4113594
-0.40467190000000003
-0.4100156
-0.3963125
-0.39176560000000005
-0.3771875
-0.3628906
-0.3508594
-0.34489060000000005
-0.3404062
-0.3364219
-0.34301560000000003
-0.3379375
-0.35128129999999996
-0.35628129999999997
-0.3705313
-0.3846875
-0.39620310000000003
-0.4038594
-0.40674999999999994
-0.41096879999999997
-0.405125
-0.4113438
-0.3971094
-0.3941875
-0.3801719
-0.366
-0.3547656
-0.3491719
-0.3452344
-0.34149999999999997
-0.34771880000000005
-0.34064059999999996
-0.3555
-0.35907809999999996
-0.37342190000000003
-0.3871719
-0.3993906
-0.40575000000000006
-0.40803130000000004
-0.41303130000000005
-0.4067188
-0.4122031
-0.39814059999999996
-0.394625
-0.38012500000000005
-0.366
-0.3541719
-0.34834380000000004
-0.3459375
-0.3410938
-0.3478125
-0.3422188
-0.35659379999999996
-0.3603906
-0.37428130000000004
-0.389125
-0.39934379999999997
-0.4062813
-0.4093906
-0.4131563
-0.4064688
-0.4122813
-0.39746879999999996
-0.3948125
-0.38043750000000004
-0.36723439999999996
-0.35620310000000005
-0.3497188
-0.34595309999999996
-0.3429219
-0.35020310000000004
-0.3437344
-0.3577344
-0.36125
-0.37573439999999997
-0.3899219
-0.40095309999999995
-0.4085313
-0.41174999999999995
-0.4159844
-0.40862499999999996
-0.4145469
-0.4005938
-0.3964219
-0.3821719
-0.3691094
-0.35779690000000003
-0.3521094
-0.3494531
-0.3450781
-0.35229689999999997
-0.3454062
-0.3584844
-0.3629844
-0.376375
-0.39092190000000004
-0.40303130000000004
-0.4086875
-0.4120938
-0.4160781
-0.4094063
-0.4151875
-0.40270310000000004
-0.39831249999999996
-0.3842188
-0.3703281
-0.36012500000000003
-0.353125
-0.3496094
-0.3461094
-0.3524063
-0.3462813
-0.35993749999999997
-0.3641562
-0.3780156
-0.3927344
-0.40318750000000003
-0.4097656
-0.4122813
-0.41714060000000003
-0.4098906
-0.4163438
-0.4015313
-0.39756250000000004
-0.38368749999999996
-0.3702031
-0.3592656
-0.3521094
-0.34879689999999997
-0.34490630000000005
-0.3521563
-0.3457031
-0.35973439999999995
-0.3635156
-0.3774375
-0.3918594
-0.4032344
-0.40990630000000006
-0.4130469
-0.41712499999999997
-0.41075
-0.4168438
-0.40225
-0.396875
-0.38395310000000005
-0.37040619999999996
-0.35975
-0.354
-0.3515625
-0.3457656
-0.352875
-0.3471406
-0.3606406
-0.3653125
-0.3792031
-0.3927969
-0.40418750000000003
-0.4106094
-0.4137344
-0.4181875
-0.4122813
-0.4178125
-0.4035313
-0.4003906
-0.3862188
-0.3726563
-0.3612969
-0.3547656
-0.3522656
-0.3483594
-0.3552656
-0.34978119999999996
-0.36371879999999995
-0.3677813
-0.3814375
-0.39592190000000005
-0.4063906
-0.412875
-0.41564059999999997
-0.42042189999999996
-0.4138906
-0.4193906
-0.4056719
-0.4011875
-0.3885313
-0.37385939999999995
-0.3633125
-0.35725
-0.354875
-0.3497656
-0.35714060000000003
-0.3515781
-0.3643594
-0.3688281
-0.3817969
-0.3961094
-0.4074219
-0.41350000000000003
-0.4165
-0.4212344
-0.4148594
-0.4209688
-0.4069063
-0.40270310000000004
-0.39003129999999997
-0.37590629999999997
-0.3646563
-0.3582031
-0.3549063
-0.3505469
-0.35754689999999995
-0.35160939999999996
-0.36529690000000004
-0.3692656
-0.38204689999999997
-0.3971094
-0.40814059999999996
-0.41515630000000003
-0.4174063
-0.4218594
-0.4154375
-0.4211719
-0.4082969
-0.4035
-0.38990630000000004
-0.37573439999999997
-0.3648281
-0.35945309999999997
-0.355875
-0.3513594
-0.35725
-0.3515469
-0.3653906
-0.3692344
-0.3826406
-0.39649999999999996
-0.4070938
-0.4142656
-0.41748440000000003
-0.4232188
-0.4169844
-0.42243749999999997
-0.4082344
-0.40382809999999997
-0.3912813
-0.37689059999999996
-0.36578130000000003
-0.35809379999999996
-0.35493749999999996
-0.35068750000000004
-0.3573906
-0.35137500000000005
-0.36529690000000004
-0.36940629999999997
-0.3823281
-0.39623440000000004
-0.4071406
-0.4138281
-0.41717190000000004
-0.4215625
-0.4149063
-0.42042189999999996
-0.4065781
-0.40270310000000004
-0.38995310000000005
-0.3749375
-0.3647031
-0.35696869999999997
-0.35450000000000004
-0.3506094
-0.3578438
-0.3526719
-0.36509369999999997
-0.36896880000000004
-0.38207810000000003
-0.3960313
-0.4075625
-0.4138594
-0.4161719
-0.4210781
-0.41473439999999995
-0.4205
-0.4050313
-0.4015625
-0.38875
-0.37571869999999996
-0.36439059999999995
-0.35839060000000006
-0.35628129999999997
-0.3503594
-0.35659379999999996
-0.3509219
-0.3644375
-0.36809379999999997
-0.38035939999999996
-0.3947813
-0.4069531
-0.4135938
-0.4155625
-0.42112499999999997
-0.41473439999999995
-0.41964060000000003
-0.40598439999999997
-0.4028125
-0.3898125
-0.3755781
-0.3653125
-0.357375
-0.3560781
-0.35096879999999997
-0.3569375
-0.35151560000000004
-0.36545310000000003
-0.36854689999999996
-0.3816875
-0.39553130000000003
-0.4067969
-0.41398440000000003
-0.41695309999999997
-0.42046880000000003
-0.41479689999999997
-0.4207656
-0.4077969
-0.4030625
-0.3899219
-0.37571869999999996
-0.36450000000000005
-0.35860939999999997
-0.3556563
-0.3504531
-0.35659379999999996
-0.3517188
-0.36473439999999996
-0.3683594
-0.3813906
-0.3954688
-0.4076406
-0.41376559999999996
-0.4157188
-0.42182810000000004
-0.41595309999999996
-0.4213281
-0.4072031
-0.40246879999999996
-0.390375
-0.37603119999999995
-0.3644531
-0.3569844
-0.3558125
-0.3507344
-0.35754689999999995
-0.3513125
-0.36559379999999997
-0.3699219
-0.3823906
-0.39654690000000004
-0.4084375
-0.4157188
-0.4171563
-0.42214060000000003
-0.41528129999999996
-0.4210469
-0.4072188
-0.40309379999999995
-0.38990630000000004
-0.3760781
-0.36393749999999997
-0.358
-0.35521880000000006
-0.3507813
-0.35685940000000005
-0.35125
-0.3667344
-0.36950000000000005
-0.3836094
-0.39692189999999994
-0.4081719
-0.4144063
-0.4172813
-0.42157809999999996
-0.41475
-0.4201875
-0.40725
-0.4040625
-0.3904531
-0.3773594
-0.366125
-0.3596094
-0.35754689999999995
-0.3515625
-0.35764060000000003
-0.35307810000000006
-0.3667188
-0.37026560000000003
-0.38299999999999995
-0.3980625
-0.4082969
-0.4150625
-0.4169375
-0.42214060000000003
-0.41515630000000003
-0.42112499999999997
-0.40760939999999996
-0.4035469
-0.3913438
-0.3769219
-0.36575
-0.35910939999999997
-0.35685940000000005
-0.35143749999999996
-0.35731250000000003
-0.3516719
-0.36524999999999996
-0.36903129999999995
-0.38121879999999997
-0.3954688
-0.4071094
-0.4144063
-0.4170313
-0.42143749999999996
-0.415
-0.4222188
-0.4079063
-0.4039063
-0.39215629999999996
-0.3779688
-0.36620310000000006
-0.3593906
-0.3570156
-0.35120310000000005
-0.35871879999999995
-0.3519531
-0.3655781
-0.3695781
-0.38275
-0.3962656
-0.4075781
-0.4150313
-0.41648440000000003
-0.42237499999999994
-0.41651560000000004
-0.4216719
-0.40729689999999996
-0.4040625
-0.39184379999999996
-0.37737499999999996
-0.3649688
-0.3581875
-0.3566406
-0.35137500000000005
-0.358
-0.3525625
-0.3663594
-0.36995310000000003
-0.38356250000000003
-0.3968906
-0.40865630000000003
-0.41528129999999996
-0.4168906
-0.4222969
-0.4158125
-0.42237499999999994
-0.4082656
-0.4045625
-0.3910938
-0.3773906
-0.36651560000000005
-0.35907809999999996
-0.35685940000000005
-0.35126559999999996
-0.3579531
-0.35259369999999995
-0.36690629999999996
-0.3701094
-0.3836719
-0.39709380000000005
-0.4085781
-0.4154375
-0.41700000000000004
-0.42360939999999997
-0.41646880000000003
-0.4217031
-0.40703130000000004
-0.40373440000000005
-0.39149999999999996
-0.3773594
-0.3657969
-0.35834380000000005
-0.3581875
-0.3519063
-0.35862499999999997
-0.35275
-0.36714060000000004
-0.3710625
-0.3822656
-0.39698439999999996
-0.407625
-0.41456249999999994
-0.41628129999999997
-0.4216406
-0.41482810000000003
-0.4200625
-0.4067813
-0.4032031
-0.3914219
-0.3774375
-0.3659531
-0.359125
-0.35778129999999997
-0.35196869999999997
-0.3585469
-0.3524531
-0.36571869999999995
-0.3694844
-0.3821875
-0.3961563
-0.406875
-0.4143906
-0.4168906
-0.42264060000000003
-0.4161406
-0.4225781
-0.4085313
-0.4047188
-0.3923125
-0.3788281
-0.3659688
-0.35942189999999996
-0.35862499999999997
-0.35290619999999995
-0.3591562
-0.3535469
-0.3669687
-0.3702031
-0.382
-0.3965313
-0.40882809999999997
-0.4157188
-0.4168125
-0.4230625
-0.41631250000000003
-0.4219375
-0.407375
-0.40435940000000004
-0.3926719
-0.37785939999999996
-0.3668438
-0.3592813
-0.3588437
-0.35260939999999996
-0.3594375
-0.35378129999999997
-0.368375
-0.37176560000000003
-0.38390630000000003
-0.397125
-0.40834380000000003
-0.4156094
-0.41771880000000006
-0.4232813
-0.4171094
-0.4228281
-0.4088906
-0.40520310000000004
-0.3925469
-0.3794844
-0.36790619999999996
-0.3615625
-0.3595938
-0.3532656
-0.35993749999999997
-0.3547188
-0.36871879999999996
-0.3721875
-0.3840156
-0.3977344
-0.4086094
-0.4153906
-0.4162188
-0.4242344
-0.4170938
-0.42292189999999996
-0.4099375
-0.4054375
-0.39251559999999996
-0.37823439999999997
-0.3678281
-0.3603906
-0.35864060000000003
-0.3535781
-0.3596563
-0.35475
-0.3674688
-0.3711719
-0.3823906
-0.39729689999999995
-0.4089844
-0.41575
-0.41660939999999996
-0.4228438
-0.4170313
-0.4220313
-0.40876559999999995
-0.4042031
-0.39299999999999996
-0.3786094
-0.36806249999999996
-0.3602031
-0.3587344
-0.3524063
-0.3581875
-0.3534844
-0.3653438
-0.3698281
-0.38204689999999997
-0.39670310000000003
-0.4076719
-0.4147031
-0.4167344
-0.42214060000000003
-0.4164219
-0.42279690000000003
-0.40845309999999996
-0.4040625
-0.3929219
-0.3779219
-0.36578130000000003
-0.35932810000000004
-0.35778129999999997
-0.3515938
-0.3582813
-0.35387500000000005
-0.36621879999999996
-0.3698438
-0.38189059999999997
-0.39620310000000003
-0.408
-0.41493749999999996
-0.41584380000000004
-0.42265630000000004
-0.4167188
-0.4219844
-0.40893749999999995
-0.4049219
-0.39303130000000003
-0.37934379999999995
-0.36792189999999997
-0.3593906
-0.35896880000000003
-0.35275
-0.3590469
-0.3534375
-0.3673281
-0.3722656
-0.38384369999999995
-0.39959380000000005
-0.40975
-0.4161719
-0.4173594
-0.4232969
-0.41875
-0.424
-0.4109375
-0.4070938
-0.39525
-0.3803125
-0.37029690000000004
-0.3644375
-0.36292189999999996
-0.35760939999999997
-0.36292189999999996
-0.35825
-0.37153129999999995
-0.3751406
-0.38715629999999995
-0.4022188
-0.4132813
-0.4204063
-0.4214063
-0.42779690000000004
-0.42121879999999995
-0.42660939999999997
-0.4142188
-0.4103594
-0.39893749999999994
-0.3841563
-0.37257809999999997
-0.3643594
-0.363
-0.3547656
-0.36110939999999997
-0.355875
-0.3688437
-0.37223439999999997
-0.3834063
-0.3990781
-0.4084219
-0.41595309999999996
-0.4152656
-0.42028129999999997
-0.414
-0.4200781
-0.4067969
-0.4029844
-0.3929219
-0.3806563
-0.3691875
-0.3618125
-0.3620156
-0.3556563
-0.3616406
-0.3563594
-0.3698594
-0.3735781
-0.38471879999999997
-0.39942189999999994
-0.41192189999999995
-0.4188906
-0.4201875
-0.4269375
-0.4206406
-0.4257969
-0.41270310000000004
-0.4082344
-0.3973125
-0.382
-0.369
-0.3635
-0.3621875
-0.35600000000000004
-0.3631875
-0.3570938
-0.3697812
-0.3733594
-0.3841563
-0.39873440000000004
-0.4111094
-0.4185313
-0.41775
-0.42535939999999994
-0.4190313
-0.42418750000000005
-0.4113281
-0.4069531
-0.3963125
-0.3817031
-0.3711875
-0.36292189999999996
-0.362125
-0.3552656
-0.3617031
-0.35685940000000005
-0.370625
-0.37423439999999997
-0.3850781
-0.3994375
-0.4120469
-0.4195313
-0.41935940000000005
-0.4256406
-0.4196094
-0.4256563
-0.4122813
-0.4081094
-0.39670310000000003
-0.3821875
-0.371375
-0.36475
-0.36403129999999995
-0.3578281
-0.36376559999999997
-0.35896880000000003
-0.3714375
-0.37540619999999997
-0.3866094
-0.400875
-0.413125
-0.41942189999999996
-0.41993749999999996
-0.4270156
-0.42042189999999996
-0.42620310000000006
-0.41334380000000004
-0.4096406
-0.39825000000000005
-0.38396880000000005
-0.3737969
-0.3655156
-0.3651094
-0.35809379999999996
-0.36467190000000005
-0.36009369999999996
-0.37328130000000004
-0.3771563
-0.3869844
-0.4011406
-0.41301560000000004
-0.4216563
-0.42125
-0.4277031
-0.4217031
-0.4270156
-0.4140938
-0.40973439999999994
-0.39875
-0.3860781
-0.37407809999999997
-0.3677813
-0.3667344
-0.359625
-0.36604689999999995
-0.3606719
-0.3731406
-0.37721879999999997
-0.3887813
-0.4024531
-0.41462499999999997
-0.4215625
-0.4221875
-0.4281563
-0.4220469
-0.4277344
-0.41493749999999996
-0.41271880000000005
-0.4017969
-0.3872656
-0.3754531
-0.3688281
-0.3678906
-0.3599219
-0.36646880000000004
-0.36237499999999995
-0.37507809999999997
-0.3783594
-0.3895
-0.4032031
-0.4150938
-0.42265630000000004
-0.4223438
-0.4305781
-0.42364060000000003
-0.4292188
-0.415875
-0.41151560000000004
-0.4009375
-0.3854688
-0.3743125
-0.36706249999999996
-0.36692189999999997
-0.35975
-0.3667656
-0.3625156
-0.37535939999999995
-0.37973439999999997
-0.3894375
-0.4049219
-0.4170313
-0.42296880000000003
-0.4236719
-0.4301406
-0.42473439999999996
-0.429375
-0.4163281
-0.4122813
-0.4022813
-0.3880938
-0.3758125
-0.3702813
-0.36960940000000003
-0.3634531
-0.3692969
-0.3638594
-0.3760156
-0.3799688
-0.39089060000000003
-0.40382809999999997
-0.41712499999999997
-0.4239531
-0.4245156
-0.4313281
-0.4255625
-0.4305156
-0.4177031
-0.41334380000000004
-0.4033281
-0.38928130000000005
-0.37790619999999997
-0.36909379999999997
-0.3706875
-0.3639063
-0.3712969
-0.3658906
-0.3785
-0.38193750000000004
-0.3914531
-0.4076875
-0.42010939999999997
-0.42625
-0.4258906
-0.4331875
-0.42662500000000003
-0.4316406
-0.42028129999999997
-0.415375
-0.40525
-0.3906094
-0.38012500000000005
-0.37223439999999997
-0.37276560000000003
-0.36590629999999996
-0.3719687
-0.3666562
-0.3795469
-0.3834688
-0.39325000000000004
-0.4079688
-0.42042189999999996
-0.4263438
-0.4269688
-0.43364060000000004
-0.4287813
-0.43325
-0.4214219
-0.4184219
-0.40568750000000003
-0.39139060000000003
-0.37990630000000003
-0.37210940000000003
-0.37184379999999995
-0.3652656
-0.3726406
-0.3669844
-0.37865630000000006
-0.38275
-0.3935469
-0.407875
-0.4195156
-0.4270313
-0.4273906
-0.43442189999999997
-0.4277813
-0.43268749999999995
-0.4198438
-0.41564059999999997
-0.4057344
-0.3902344
-0.37896880000000005
-0.37145310000000004
-0.37114060000000004
-0.3640469
-0.3708281
-0.36560940000000003
-0.3779219
-0.3829844
-0.3939375
-0.40739060000000005
-0.4194844
-0.42731250000000004
-0.4276094
-0.4324219
-0.42578130000000003
-0.4316563
-0.4186875
-0.4150313
-0.40309379999999995
-0.39049999999999996
-0.3791094
-0.37192189999999997
-0.370875
-0.3650625
-0.37174999999999997
-0.3655625
-0.3776719
-0.3825
-0.3938281
-0.40553130000000004
-0.4187344
-0.4258594
-0.4257656
-0.43115630000000005
-0.42559379999999997
-0.4320313
-0.41832810000000004
-0.41481250000000003
-0.4032813
-0.38995310000000005
-0.3782656
-0.37024999999999997
-0.37153129999999995
-0.36498440000000004
-0.37075
-0.36560940000000003
-0.3787656
-0.38275
-0.39245310000000005
-0.40584380000000003
-0.4184375
-0.4259531
-0.42504689999999995
-0.4320156
-0.4252188
-0.4312813
-0.4182188
-0.41475
-0.4041719
-0.3907344
-0.37890630000000003
-0.3710625
-0.37142189999999997
-0.36542189999999997
-0.3715938
-0.36575
-0.3782656
-0.38178130000000005
-0.39293750000000005
-0.40668750000000004
-0.4183125
-0.42645310000000003
-0.4267188
-0.4317031
-0.42615630000000004
-0.4320156
-0.41942189999999996
-0.41589060000000005
-0.4038438
-0.3915625
-0.3796875
-0.37221879999999996
-0.3727188
-0.36540619999999996
-0.3721719
-0.3660781
-0.378125
-0.3816094
-0.39331249999999995
-0.40629689999999996
-0.41973439999999995
-0.4270781
-0.4263438
-0.432875
-0.42651560000000005
-0.4324219
-0.41964060000000003
-0.4165313
-0.40559379999999995
-0.39198439999999996
-0.3803125
-0.3720469
-0.3727813
-0.3656406
-0.3722656
-0.3664844
-0.37956249999999997
-0.3845156
-0.3943906
-0.4079375
-0.4194063
-0.4271563
-0.4270469
-0.4330938
-0.4267031
-0.43334380000000006
-0.4215469
-0.4168438
-0.40559379999999995
-0.3920625
-0.37957810000000003
-0.3727813
-0.37342190000000003
-0.367125
-0.3729688
-0.3673281
-0.380625
-0.3841094
-0.39589060000000004
-0.40807810000000005
-0.4199219
-0.4275938
-0.42725
-0.43424999999999997
-0.4279844
-0.4345469
-0.42160939999999997
-0.41840629999999995
-0.40700000000000003
-0.3928125
-0.3807656
-0.3728125
-0.37432810000000005
-0.3666094
-0.3745313
-0.36864060000000004
-0.3811719
-0.38432810000000006
-0.395625
-0.4082813
-0.42115630000000004
-0.4279844
-0.4268594
-0.4348906
-0.4280625
-0.43396880000000004
-0.4207656
-0.4178281
-0.4074531
-0.39348439999999996
-0.3813906
-0.3736719
-0.37424999999999997
-0.3680781
-0.3742031
-0.3674219
-0.38056249999999997
-0.3836406
-0.3942969
-0.4077344
-0.42053130000000005
-0.42679690000000003
-0.4269688
-0.4331406
-0.42785939999999995
-0.43440629999999997
-0.4218594
-0.4178906
-0.4067969
-0.3936406
-0.38153129999999996
-0.3741719
-0.3737656
-0.36792189999999997
-0.3738281
-0.3678438
-0.3809063
-0.3840469
-0.394375
-0.4078438
-0.4210781
-0.4278906
-0.42795310000000003
-0.4352344
-0.42779690000000004
-0.435
-0.42206249999999995
-0.41901560000000004
-0.4083281
-0.39420310000000003
-0.381875
-0.373625
-0.3750937
-0.3682656
-0.375
-0.36840629999999996
-0.3808594
-0.3850938
-0.39612499999999995
-0.4094375
-0.4227344
-0.429375
-0.42854689999999995
-0.4348594
-0.4291719
-0.43576560000000003
-0.42296880000000003
-0.4188594
-0.4085156
-0.39525
-0.3824688
-0.37560940000000004
-0.3759375
-0.36909379999999997
-0.3753281
-0.37040619999999996
-0.3822344
-0.3861406
-0.3971094
-0.40882809999999997
-0.42200000000000004
-0.4284688
-0.4290469
-0.4355469
-0.4295469
-0.4352188
-0.4216563
-0.41910939999999997
-0.4085156
-0.39564059999999995
-0.38285939999999996
-0.3764219
-0.3769687
-0.3699219
-0.37625
-0.3706875
-0.3830156
-0.3862813
-0.3973281
-0.4100156
-0.4223906
-0.42987499999999995
-0.42895310000000003
-0.4364063
-0.429625
-0.43567189999999995
-0.4231094
-0.4199531
-0.410375
-0.3967969
-0.3849219
-0.3774688
-0.3771719
-0.37024999999999997
-0.37657809999999997
-0.370875
-0.3832031
-0.3873125
-0.3975
-0.4103281
-0.4240469
-0.4295313
-0.4296875
-0.43676560000000003
-0.431375
-0.43690629999999997
-0.4247188
-0.42121879999999995
-0.4103125
-0.397375
-0.3837656
-0.37737499999999996
-0.377
-0.37103119999999995
-0.37721879999999997
-0.37114060000000004
-0.3837031
-0.3874375
-0.3987656
-0.41068750000000004
-0.4244375
-0.4315625
-0.43151560000000005
-0.4392969
-0.4323281
-0.4374844
-0.425
-0.42159379999999996
-0.4110313
-0.39793750000000006
-0.385375
-0.37807810000000003
-0.3779688
-0.3708281
-0.37799999999999995
-0.37206249999999996
-0.38425
-0.3877969
-0.3979688
-0.41100000000000003
-0.4241563
-0.43162500000000004
-0.4326094
-0.43785939999999995
-0.43214060000000004
-0.4380156
-0.42498440000000004
-0.42089060000000006
-0.4119844
-0.39815629999999996
-0.38609380000000004
-0.37965629999999995
-0.37939059999999997
-0.3730313
-0.3786406
-0.37407809999999997
-0.38526560000000004
-0.38820309999999997
-0.3989063
-0.41115630000000003
-0.42475
-0.4308594
-0.4302344
-0.4373438
-0.4316094
-0.4377813
-0.4254063
-0.4219375
-0.41129689999999997
-0.39910939999999995
-0.3855625
-0.37789059999999997
-0.37875
-0.3719531
-0.3781563
-0.37225
-0.3849219
-0.3882188
-0.3981094
-0.4115
-0.425
-0.43067189999999994
-0.43043750000000003
-0.4382031
-0.4315625
-0.43742190000000003
-0.4253125
-0.4218906
-0.4121875
-0.3988438
-0.3857344
-0.3778438
-0.3787656
-0.3716406
-0.3789375
-0.3740469
-0.3844375
-0.38831249999999995
-0.39996879999999996
-0.4125313
-0.4259844
-0.43126559999999997
-0.4310625
-0.4378438
-0.43225
-0.4378281
-0.42646880000000004
-0.42243749999999997
-0.4125781
-0.39917189999999997
-0.3868906
-0.3795156
-0.3787656
-0.37220309999999995
-0.3782031
-0.3720313
-0.3845
-0.3888281
-0.3989531
-0.4123125
-0.425875
-0.433
-0.43189059999999996
-0.4397813
-0.4340625
-0.4388438
-0.4259531
-0.423125
-0.4135313
-0.40057810000000005
-0.38720309999999997
-0.3794531
-0.3803281
-0.37395310000000004
-0.3801719
-0.37306249999999996
-0.3861406
-0.38957810000000004
-0.4004219
-0.4133594
-0.4263594
-0.4341875
-0.43364060000000004
-0.44175
-0.4367031
-0.44176560000000004
-0.4288594
-0.42515630000000004
-0.41481250000000003
-0.40239060000000004
-0.3890156
-0.3834688
-0.38348439999999995
-0.3759688
-0.38206249999999997
-0.37723439999999997
-0.38890630000000004
-0.39299999999999996
-0.4033281
-0.41637500000000005
-0.429
-0.435625
-0.4345156
-0.4405938
-0.4333906
-0.4386719
-0.4259375
-0.42206249999999995
-0.4122656
-0.39825000000000005
-0.3857344
-0.37793750000000004
-0.378125
-0.3700313
-0.375375
-0.36976559999999997
-0.3819219
-0.3862813
-0.39612499999999995
-0.4095938
-0.42375
-0.42975
-0.4302031
-0.4379063
-0.4324375
-0.43907809999999997
-0.42796880000000004
-0.4244063
-0.4145781
-0.4016563
-0.38875
-0.3815938
-0.38176560000000004
-0.37481250000000005
-0.38121879999999997
-0.3754219
-0.3877813
-0.3906406
-0.40123440000000005
-0.41329689999999997
-0.4263438
-0.43257809999999997
-0.43225
-0.441125
-0.4352813
-0.44001559999999995
-0.4280781
-0.4247031
-0.4153125
-0.40149999999999997
-0.38910939999999994
-0.3816875
-0.38215629999999995
-0.37560940000000004
-0.3805313
-0.37481250000000005
-0.3866563
-0.3904063
-0.4000938
-0.41307810000000006
-0.4270313
-0.4334531
-0.43293750000000003
-0.44115630000000006
-0.4350625
-0.440625
-0.42939059999999996
-0.4244063
-0.4146563
-0.402625
-0.3894688
-0.3820313
-0.3815469
-0.37471879999999996
-0.3811406
-0.3750937
-0.3869375
-0.3909688
-0.40101559999999997
-0.4137344
-0.4275156
-0.4346563
-0.434625
-0.4423438
-0.43651560000000006
-0.4416406
-0.42964060000000004
-0.4250625
-0.415375
-0.4024375
-0.3895
-0.3829688
-0.38373440000000003
-0.37603119999999995
-0.3819219
-0.3768125
-0.38839060000000003
-0.39225
-0.40101559999999997
-0.41345309999999996
-0.4285781
-0.435
-0.4343594
-0.4416875
-0.4358906
-0.44178130000000004
-0.4300625
-0.4250625
-0.41596879999999997
-0.4024531
-0.3899219
-0.3832656
-0.3835
-0.3761719
-0.3825625
-0.3781875
-0.3886094
-0.3921875
-0.40154690000000004
-0.4150313
-0.42854689999999995
-0.4341563
-0.4345313
-0.4416406
-0.4363125
-0.4411406
-0.42975
-0.42657809999999996
-0.41700000000000004
-0.4042656
-0.3910156
-0.3842031
-0.3833906
-0.3771563
-0.38225000000000003
-0.3777031
-0.3893125
-0.3927344
-0.40175
-0.4143438
-0.42864060000000004
-0.43403129999999995
-0.43487499999999996
-0.44293750000000004
-0.437875
-0.4415156
-0.4305156
-0.4262813
-0.4169844
-0.40418750000000003
-0.3897344
-0.383875
-0.3845
-0.37721879999999997
-0.38262500000000005
-0.3770781
-0.38875
-0.3929063
-0.40209380000000006
-0.41595309999999996
-0.42918750000000006
-0.4347656
-0.4355938
-0.44276560000000004
-0.4370469
-0.4428281
-0.4302656
-0.4260625
-0.41850000000000004
-0.4038594
-0.3909375
-0.3829844
-0.3832031
-0.3764844
-0.38253129999999996
-0.376625
-0.3882813
-0.39268749999999997
-0.40201560000000003
-0.41579689999999997
-0.4292188
-0.4348281
-0.4357969
-0.44220309999999996
-0.4378125
-0.4430469
-0.43192189999999997
-0.42725
-0.4180625
-0.4049844
-0.39089060000000003
-0.3858594
-0.3851563
-0.3775625
-0.3836406
-0.3783594
-0.3899375
-0.395
-0.4035313
-0.4170469
-0.43121879999999996
-0.43635939999999995
-0.4362344
-0.4446719
-0.4391563
-0.4433438
-0.43237499999999995
-0.428125
-0.4198438
-0.4053438
-0.3931875
-0.3855156
-0.3865
-0.3793594
-0.3845156
-0.37965629999999995
-0.3910313
-0.39520310000000003
-0.4037188
-0.4180781
-0.43120310000000006
-0.4365938
-0.4378906
-0.44375
-0.43754689999999996
-0.4432031
-0.4326563
-0.4284219
-0.42015630000000004
-0.40725
-0.39368749999999997
-0.3874844
-0.3873438
-0.38
-0.38501559999999996
-0.3802031
-0.3908594
-0.39549999999999996
-0.40339060000000004
-0.4169375
-0.4317656
-0.4362969
-0.4371094
-0.4443125
-0.43925
-0.4442188
-0.43268749999999995
-0.4283906
-0.41935940000000005
-0.40612499999999996
-0.39387500000000003
-0.3867031
-0.3855313
-0.37854689999999996
-0.3838906
-0.3787344
-0.3897656
-0.3943281
-0.40275
-0.4167813
-0.4299219
-0.43573439999999997
-0.4358594
-0.44253129999999996
-0.4379844
-0.4427813
-0.43210940000000003
-0.4280781
-0.41981250000000003
-0.40526560000000006
-0.3920625
-0.3847813
-0.3844844
-0.3779219
-0.38331249999999994
-0.37785939999999996
-0.3891563
-0.3932813
-0.4011094
-0.4154688
-0.4295469
-0.4345313
-0.435
-0.4423281
-0.43721879999999996
-0.44253129999999996
-0.4318594
-0.42725
-0.4182813
-0.4038125
-0.3911719
-0.3857969
-0.38512500000000005
-0.3776094
-0.3823906
-0.37837499999999996
-0.38921880000000003
-0.3935469
-0.4017031
-0.4157813
-0.42875
-0.43456249999999996
-0.4352031
-0.4423594
-0.43700000000000006
-0.441375
-0.4309844
-0.4264063
-0.41862499999999997
-0.4043438
-0.3918906
-0.38526560000000004
-0.3852813
-0.3778125
-0.38275
-0.3780313
-0.38890630000000004
-0.3937656
-0.40106250000000004
-0.41553130000000005
-0.42865630000000005
-0.4348906
-0.43512500000000004
-0.44153129999999996
-0.4365938
-0.44140630000000003
-0.4318594
-0.4272813
-0.4196563
-0.4036094
-0.3913438
-0.3854531
-0.3849688
-0.37807810000000003
-0.38273440000000003
-0.3790781
-0.3889219
-0.3936406
-0.40132809999999997
-0.4163438
-0.4289063
-0.43460940000000003
-0.4349063
-0.44214060000000005
-0.4378438
-0.4412969
-0.43209380000000003
-0.4272188
-0.4194375
-0.4053594
-0.39214060000000006
-0.386
-0.3848906
-0.3787031
-0.3822656
-0.37848439999999994
-0.3888438
-0.3934531
-0.4020781
-0.4167344
-0.42932810000000005
-0.4353281
-0.4363906
-0.4435625
-0.4394844
-0.44425
-0.43268749999999995
-0.4276875
-0.41962499999999997
-0.4051563
-0.39235939999999997
-0.3859375
-0.3845156
-0.37785939999999996
-0.3827813
-0.3784375
-0.3892344
-0.3936563
-0.40085940000000003
-0.4169375
-0.4290469
-0.4357969
-0.4364219
-0.44273440000000003
-0.43895310000000004
-0.4436094
-0.4336875
-0.42825
-0.4210313
-0.40528129999999996
-0.3939688
-0.3872344
-0.3866563
-0.379625
-0.383625
-0.3799844
-0.39006250000000003
-0.39537500000000003
-0.40346879999999996
-0.41754689999999994
-0.4306875
-0.435625
-0.4366719
-0.44245310000000004
-0.439375
-0.44237499999999996
-0.4323281
-0.4272188
-0.4211719
-0.40575000000000006
-0.3938281
-0.3878125
-0.38667189999999996
-0.37939059999999997
-0.38359380000000004
-0.38001559999999995
-0.39043750000000005
-0.39518749999999997
-0.4028125
-0.41834380000000004
-0.4305781
-0.4356875
-0.4362656
-0.4429844
-0.43842190000000003
-0.4428125
-0.4328281
-0.4285313
-0.42143749999999996
-0.40606250000000005
-0.39348439999999996
-0.3886563
-0.38684379999999996
-0.3793125
-0.38417189999999996
-0.38040619999999997
-0.38987499999999997
-0.39534379999999997
-0.4025
-0.41731250000000003
-0.43029690000000004
-0.43592190000000003
-0.43635939999999995
-0.443875
-0.4401719
-0.444125
-0.4344531
-0.4287813
-0.4217031
-0.40551560000000003
-0.3932656
-0.38756250000000003
-0.3874219
-0.38039059999999997
-0.3838906
-0.380625
-0.39054690000000003
-0.3948438
-0.4025313
-0.41803130000000005
-0.43084380000000005
-0.435625
-0.43745310000000004
-0.4441406
-0.4399844
-0.44425
-0.4333594
-0.4288594
-0.42143749999999996
-0.40674999999999994
-0.39320309999999997
-0.3884688
-0.386875
-0.37990630000000003
-0.38403129999999996
-0.38035939999999996
-0.38928130000000005
-0.39532809999999996
-0.4022813
-0.41771880000000006
-0.43067189999999994
-0.4361875
-0.437875
-0.44487499999999996
-0.44140630000000003
-0.44432810000000006
-0.4344844
-0.4284531
-0.4216406
-0.4064844
-0.39375
-0.3884688
-0.3884063
-0.38121879999999997
-0.3848594
-0.3821875
-0.39178130000000005
-0.39740630000000005
-0.40325000000000005
-0.4192813
-0.43151560000000005
-0.43709380000000003
-0.4372813
-0.44490630000000003
-0.4413438
-0.44470309999999996
-0.4351094
-0.42893749999999997
-0.42274999999999996
-0.4069688
-0.3940781
-0.388875
-0.38799999999999996
-0.38123440000000003
-0.3850938
-0.3819531
-0.39135939999999997
-0.3963125
-0.4028594
-0.41825
-0.43237499999999995
-0.4366875
-0.4385
-0.4452031
-0.4407969
-0.4448906
-0.4348906
-0.4305313
-0.4242344
-0.4075938
-0.3947344
-0.38975000000000004
-0.38753129999999997
-0.38109380000000004
-0.38570309999999997
-0.3822812
-0.3910781
-0.395875
-0.40267189999999997
-0.4187344
-0.4315
-0.43745310000000004
-0.43854689999999996
-0.4452969
-0.4412031
-0.4444531
-0.4354531
-0.430375
-0.42396880000000003
-0.407875
-0.3954531
-0.3894531
-0.3882188
-0.3822656
-0.3860781
-0.3817344
-0.3910156
-0.3965313
-0.4023594
-0.41878129999999997
-0.43153129999999995
-0.4371563
-0.43825000000000003
-0.4455313
-0.4419844
-0.44512500000000005
-0.4349063
-0.4302031
-0.4235156
-0.4075469
-0.39501559999999997
-0.3892344
-0.3881875
-0.38092190000000004
-0.3849844
-0.3821094
-0.3916406
-0.39707810000000004
-0.4037188
-0.4197813
-0.4326094
-0.4367031
-0.43810940000000004
-0.4456406
-0.4416563
-0.4441875
-0.4348438
-0.429375
-0.42424999999999996
-0.40814059999999996
-0.39606250000000004
-0.38975000000000004
-0.3886406
-0.381875
-0.3857656
-0.3826719
-0.3918281
-0.3975781
-0.4025938
-0.41901560000000004
-0.4316563
-0.4375
-0.43817189999999995
-0.4452031
-0.44176560000000004
-0.4451719
-0.4360313
-0.4299063
-0.4243594
-0.40809379999999995
-0.395875
-0.3905625
-0.38856250000000003
-0.38134369999999995
-0.3861563
-0.38293750000000004
-0.392125
-0.3973594
-0.402625
-0.41865630000000004
-0.4313281
-0.4377031
-0.43926560000000003
-0.44504689999999997
-0.44146880000000005
-0.4449219
-0.4355781
-0.4305781
-0.4244375
-0.4089844
-0.3965156
-0.39049999999999996
-0.38970309999999997
-0.3823906
-0.386125
-0.3826719
-0.3914219
-0.3964063
-0.4028906
-0.4198438
-0.43192189999999997
-0.4383125
-0.4396094
-0.4470313
-0.44354689999999997
-0.4467969
-0.43828130000000004
-0.4333125
-0.4275156
-0.41064059999999997
-0.3974375
-0.39137500000000003
-0.3906875
-0.3841875
-0.3884063
-0.3850781
-0.3943594
-0.4005156
-0.4054531
-0.4222656
-0.4357969
-0.4412813
-0.44240630000000003
-0.4482344
-0.4425938
-0.44609380000000004
-0.435875
-0.42973439999999996
-0.42464060000000003
-0.4059219
-0.39351559999999997
-0.3871094
-0.3851094
-0.3790781
-0.3812813
-0.37825000000000003
-0.38751559999999996
-0.3933438
-0.3986719
-0.4145313
-0.4293125
-0.4351563
-0.4374375
-0.44456249999999997
-0.44231250000000005
-0.4452969
-0.43646880000000005
-0.43084380000000005
-0.4252656
-0.4093438
-0.39637500000000003
-0.3900781
-0.3891406
-0.38209380000000004
-0.3859063
-0.3832344
-0.3921875
-0.3973438
-0.4032344
-0.4215625
-0.4343594
-0.4394219
-0.4397656
-0.4463438
-0.44307810000000003
-0.4454844
-0.4366875
-0.43084380000000005
-0.42553130000000006
-0.40915630000000003
-0.3964375
-0.3909688
-0.3890938
-0.383125
-0.387
-0.38375
-0.39225
-0.39771880000000004
-0.4028906
-0.4199688
-0.43334380000000006
-0.43837499999999996
-0.44
-0.4463906
-0.4426719
-0.4450781
-0.43745310000000004
-0.43114060000000004
-0.4260938
-0.40973439999999994
-0.39756250000000004
-0.3916563
-0.39032809999999996
-0.38307810000000003
-0.3863438
-0.38356250000000003
-0.3927969
-0.3982188
-0.4036563
-0.42028129999999997
-0.4339063
-0.43817189999999995
-0.43973439999999997
-0.44592190000000004
-0.44209380000000004
-0.44581249999999994
-0.4376563
-0.43210940000000003
-0.42679690000000003
-0.40931249999999997
-0.3967656
-0.391
-0.3909531
-0.3834688
-0.3865469
-0.3834063
-0.3918125
-0.39856250000000004
-0.4039688
-0.4204375
-0.4329063
-0.4386719
-0.4405156
-0.4462656
-0.4421094
-0.4467031
-0.4379531
-0.4316719
-0.4271563
-0.41120310000000004
-0.3978125
-0.3926719
-0.39057810000000004
-0.3832813
-0.3860313
-0.38359380000000004
-0.3925938
-0.39921880000000004
-0.4043906
-0.4216406
-0.4341719
-0.4388438
-0.4395781
-0.4468594
-0.44307810000000003
-0.446
-0.4383906
-0.43220309999999995
-0.4267031
-0.4106563
-0.39703130000000003
-0.3914844
-0.3908594
-0.38390630000000003
-0.3880156
-0.3847344
-0.3934688
-0.399375
-0.40410939999999995
-0.4211719
-0.4342344
-0.4397813
-0.4415156
-0.4484688
-0.4440938
-0.446375
-0.4380781
-0.43193750000000003
-0.42692189999999997
-0.41064059999999997
-0.3985938
-0.3928125
-0.3904531
-0.38434379999999996
-0.3883438
-0.3859375
-0.39404690000000003
-0.4005625
-0.40490630000000005
-0.4210625
-0.43456249999999996
-0.43907809999999997
-0.4412344
-0.44817189999999996
-0.4444531
-0.44709380000000004
-0.4387969
-0.43190629999999997
-0.4275
-0.411625
-0.3992969
-0.3940625
-0.39285939999999997
-0.38523440000000003
-0.3888125
-0.38618749999999996
-0.3935938
-0.40057810000000005
-0.4048594
-0.4210781
-0.43487499999999996
-0.4405313
-0.44146880000000005
-0.4486406
-0.4455156
-0.4485
-0.440375
-0.43432810000000005
-0.42924999999999996
-0.41212499999999996
-0.4000313
-0.39362499999999995
-0.3928906
-0.3864219
-0.39003129999999997
-0.3864375
-0.3945156
-0.40112499999999995
-0.4059375
-0.4221094
-0.43556249999999996
-0.44092190000000003
-0.4429063
-0.44859380000000004
-0.44543750000000004
-0.44810940000000005
-0.441125
-0.43498440000000005
-0.43120310000000006
-0.4136875
-0.40034379999999997
-0.39532809999999996
-0.39307810000000004
-0.3872656
-0.391
-0.3882188
-0.3956094
-0.4023125
-0.4076875
-0.42424999999999996
-0.4370469
-0.4429531
-0.443875
-0.450375
-0.4468125
-0.4502813
-0.4419688
-0.43442189999999997
-0.4303281
-0.4138125
-0.4017344
-0.3959063
-0.3940156
-0.3869531
-0.3907813
-0.38776560000000004
-0.3955938
-0.4029531
-0.4074844
-0.424
-0.4367188
-0.4426406
-0.44385939999999996
-0.4505625
-0.44684379999999996
-0.44856250000000003
-0.4413438
-0.4341094
-0.4300625
-0.41346879999999997
-0.40053130000000003
-0.3951406
-0.39314059999999995
-0.38684379999999996
-0.38989060000000003
-0.3866406
-0.39526560000000005
-0.401
-0.405625
-0.4227344
-0.43526560000000003
-0.4402188
-0.44251559999999995
-0.44831249999999995
-0.4461094
-0.4476719
-0.4402188
-0.4333906
-0.42870310000000006
-0.41148440000000003
-0.3989063
-0.3938125
-0.3929844
-0.3859688
-0.38868749999999996
-0.3863125
-0.3935938
-0.40106250000000004
-0.4042188
-0.4205781
-0.433875
-0.439
-0.4408281
-0.4486094
-0.44525
-0.4469688
-0.4400938
-0.4328438
-0.4284531
-0.4109219
-0.39925
-0.39356250000000004
-0.3910938
-0.38432810000000006
-0.3873594
-0.3852813
-0.39284379999999997
-0.3996406
-0.4042344
-0.4210781
-0.4341094
-0.4404844
-0.44225000000000003
-0.4477969
-0.4446875
-0.44714060000000005
-0.4392188
-0.4323594
-0.4283125
-0.41182810000000003
-0.39887500000000004
-0.3936719
-0.3910781
-0.384125
-0.38754689999999997
-0.3854844
-0.3922969
-0.3995156
-0.40435940000000004
-0.4210781
-0.43442189999999997
-0.44001559999999995
-0.44184379999999995
-0.44785939999999996
-0.44503129999999996
-0.446875
-0.439375
-0.43237499999999995
-0.4276563
-0.41106250000000005
-0.3994375
-0.39304690000000003
-0.3923281
-0.386
-0.38904690000000003
-0.38720309999999997
-0.3935781
-0.4007031
-0.4050469
-0.42278129999999997
-0.4353906
-0.43973439999999997
-0.4416094
-0.4482969
-0.4451719
-0.44640630000000003
-0.4398281
-0.4316875
-0.4288906
-0.4124219
-0.4
-0.3946719
-0.3919531
-0.3867031
-0.38970309999999997
-0.3873438
-0.3946719
-0.40137500000000004
-0.40548439999999997
-0.4224531
-0.43475
-0.4401719
-0.4426719
-0.44859380000000004
-0.4461406
-0.44793750000000004
-0.4404531
-0.43310940000000003
-0.4282969
-0.41325
-0.4013906
-0.3959375
-0.3942969
-0.3869219
-0.3905625
-0.38784379999999996
-0.3935
-0.40143749999999995
-0.4048281
-0.4213906
-0.4351406
-0.4401406
-0.44262500000000005
-0.4482344
-0.4459063
-0.44856250000000003
-0.44215629999999995
-0.4346875
-0.431375
-0.4136406
-0.4009375
-0.395
-0.3935938
-0.3869844
-0.3897344
-0.3871875
-0.39385939999999997
-0.4017656
-0.40581249999999996
-0.4222656
-0.43592190000000003
-0.4412344
-0.4440781
-0.4497656
-0.44745310000000005
-0.44965629999999995
-0.4426406
-0.4353281
-0.43190629999999997
-0.41398440000000003
-0.4010781
-0.3959063
-0.39317189999999996
-0.3869688
-0.3898125
-0.38793750000000005
-0.3943281
-0.4018281
-0.4062344
-0.4229531
-0.43609380000000003
-0.4416875
-0.4436875
-0.4502969
-0.4471094
-0.4491875
-0.44220309999999996
-0.4340469
-0.43042189999999997
-0.41362499999999996
-0.4021406
-0.39675
-0.3945
-0.38639060000000003
-0.39018749999999996
-0.38890630000000004
-0.3949844
-0.4025
-0.40595309999999996
-0.423625
-0.4365938
-0.4423281
-0.44379689999999994
-0.45012500000000005
-0.4470625
-0.4491875
-0.4432344
-0.4354063
-0.4311875
-0.4145781
-0.40123440000000005
-0.39537500000000003
-0.3936094
-0.38745310000000005
-0.3902031
-0.3887656
-0.3949844
-0.4024531
-0.4057031
-0.42265630000000004
-0.43662500000000004
-0.4419531
-0.44490630000000003
-0.4504219
-0.44754689999999997
-0.4489531
-0.4428438
-0.43507809999999997
-0.4310156
-0.4142969
-0.40192189999999994
-0.3963281
-0.39543750000000005
-0.3890781
-0.391
-0.38879689999999995
-0.3947344
-0.4024219
-0.4064063
-0.4234688
-0.4370156
-0.44325000000000003
-0.4436719
-0.4496719
-0.44629689999999994
-0.44825000000000004
-0.4413906
-0.4350313
-0.43193750000000003
-0.4142031
-0.40282809999999997
-0.3967969
-0.3947188
-0.388125
-0.3905938
-0.3887031
-0.3942344
-0.4026875
-0.4069375
-0.4234375
-0.4355313
-0.441875
-0.4446094
-0.45035939999999997
-0.4474844
-0.4497656
-0.44337499999999996
-0.436
-0.43214060000000004
-0.41435940000000004
-0.4028906
-0.39660939999999995
-0.3939844
-0.38740630000000004
-0.38970309999999997
-0.38856250000000003
-0.3941563
-0.4015938
-0.4054531
-0.4213438
-0.4360781
-0.44140630000000003
-0.4433281
-0.44996879999999995
-0.4474219
-0.4488438
-0.44285939999999996
-0.43498440000000005
-0.43114060000000004
-0.4140625
-0.40132809999999997
-0.39526560000000005
-0.3935781
-0.3871719
-0.3911563
-0.389125
-0.3948438
-0.4021406
-0.4064844
-0.4231719
-0.43578130000000004
-0.44275
-0.44432810000000006
-0.4504219
-0.4474844
-0.4502031
-0.4434531
-0.43592190000000003
-0.4324375
-0.415375
-0.40317189999999997
-0.3968906
-0.39410939999999994
-0.3883438
-0.39253129999999997
-0.38948439999999995
-0.39612499999999995
-0.40303130000000004
-0.4078594
-0.4245469
-0.43725
-0.44275
-0.443875
-0.4499375
-0.44793750000000004
-0.45003129999999997
-0.4439375
-0.43653129999999996
-0.43285939999999995
-0.415375
-0.4044688
-0.39771880000000004
-0.3963125
-0.38926560000000004
-0.39184379999999996
-0.3903906
-0.39592190000000005
-0.4036563
-0.4074531
-0.4244063
-0.43731250000000005
-0.4435
-0.4449688
-0.4510781
-0.44859380000000004
-0.4499219
-0.4451719
-0.4374063
-0.4332031
-0.4177969
-0.4049844
-0.3982188
-0.3957969
-0.388875
-0.3922344
-0.3904844
-0.3963594
-0.40431249999999996
-0.4079219
-0.4245781
-0.43785939999999995
-0.44307810000000003
-0.4462656
-0.45239060000000003
-0.44837499999999997
-0.45098439999999995
-0.44549999999999995
-0.4380156
-0.43412500000000004
-0.41682810000000003
-0.4045469
-0.39935940000000003
-0.3972188
-0.3893281
-0.3911563
-0.3897969
-0.39520310000000003
-0.40410939999999995
-0.40803130000000004
-0.4238906
-0.43678130000000004
-0.4425625
-0.44428130000000005
-0.4522188
-0.44896880000000006
-0.45092190000000004
-0.4455313
-0.438125
-0.4337969
-0.4165313
-0.4046094
-0.39775
-0.39606250000000004
-0.38925
-0.3923125
-0.3906563
-0.3959688
-0.40410939999999995
-0.40867190000000003
-0.42651560000000005
-0.4382188
-0.44385939999999996
-0.44621879999999997
-0.4521875
-0.4489219
-0.45125
-0.4459063
-0.4375313
-0.4328906
-0.41579689999999997
-0.40404690000000004
-0.3985469
-0.39671880000000004
-0.39026560000000005
-0.3936563
-0.39184379999999996
-0.39745310000000006
-0.40484380000000003
-0.40870310000000004
-0.42476559999999997
-0.4378906
-0.4436719
-0.445625
-0.451625
-0.44842190000000004
-0.45087499999999997
-0.44560940000000004
-0.4375625
-0.4342188
-0.41765630000000004
-0.4042656
-0.3980938
-0.3970625
-0.3901563
-0.3935
-0.39160939999999994
-0.3964844
-0.40510939999999995
-0.4086094
-0.42542189999999996
-0.4378906
-0.44417189999999995
-0.44592190000000004
-0.4528125
-0.44928130000000005
-0.451125
-0.4465156
-0.4397813
-0.4360313
-0.41840629999999995
-0.4081094
-0.40106250000000004
-0.3983281
-0.3917344
-0.39525
-0.39284379999999997
-0.3988906
-0.4068906
-0.41015630000000003
-0.42678130000000003
-0.44098439999999994
-0.4474844
-0.4496719
-0.45570309999999997
-0.4522188
-0.4554844
-0.4498125
-0.44220309999999996
-0.43779690000000004
-0.42029690000000003
-0.4076406
-0.3999375
-0.39629689999999995
-0.3889688
-0.39129689999999995
-0.3895625
-0.3947031
-0.4019531
-0.4059219
-0.4219688
-0.43460940000000003
-0.44087499999999996
-0.4415
-0.4485156
-0.44549999999999995
-0.44799999999999995
-0.44289059999999997
-0.43507809999999997
-0.43220309999999995
-0.4154844
-0.40345309999999995
-0.39715629999999996
-0.3957969
-0.3890781
-0.392625
-0.3914531
-0.39649999999999996
-0.4051875
-0.40973439999999994
-0.4259531
-0.4384688
-0.44526560000000004
-0.446875
-0.45317189999999996
-0.45012500000000005
-0.45246879999999995
-0.44646880000000005
-0.43776560000000003
-0.433625
-0.4169844
-0.40490630000000005
-0.3980625
-0.3961406
-0.39018749999999996
-0.3939219
-0.3922344
-0.39709380000000005
-0.4051875
-0.4087188
-0.4251875
-0.4383594
-0.4433438
-0.4469063
-0.45362499999999994
-0.449625
-0.4515
-0.4468125
-0.438125
-0.43475
-0.4179531
-0.4062656
-0.40001559999999997
-0.3982188
-0.3905625
-0.39404690000000003
-0.3920469
-0.3963281
-0.40484380000000003
-0.4092344
-0.4256875
-0.4378906
-0.44518749999999996
-0.44715629999999995
-0.4534531
-0.4497188
-0.4521094
-0.44689059999999997
-0.4377813
-0.4341094
-0.41825
-0.4064531
-0.40025
-0.39803130000000003
-0.3894063
-0.39362499999999995
-0.39139060000000003
-0.39623440000000004
-0.404625
-0.40870310000000004
-0.4255625
-0.4389375
-0.4451719
-0.4469219
-0.45285939999999997
-0.449375
-0.4520625
-0.4474219
-0.43903129999999996
-0.4352031
-0.4186719
-0.4060938
-0.39917189999999997
-0.3972188
-0.3906563
-0.39428130000000006
-0.39284379999999997
-0.3974844
-0.40620310000000004
-0.4101719
-0.4259375
-0.4382188
-0.4444688
-0.446375
-0.45320309999999997
-0.45075000000000004
-0.4532813
-0.4484063
-0.4403125
-0.4361719
-0.41864060000000003
-0.4063594
-0.39934379999999997
-0.39793750000000006
-0.3901094
-0.39495310000000006
-0.3930625
-0.3978125
-0.40553130000000004
-0.4096563
-0.4263438
-0.43817189999999995
-0.4447969
-0.4470625
-0.45368749999999997
-0.44987499999999997
-0.4526719
-0.4465781
-0.4387813
-0.4341563
-0.4173281
-0.4056094
-0.3988125
-0.3965781
-0.3901094
-0.3938125
-0.39089060000000003
-0.3950781
-0.4038594
-0.4088125
-0.4253906
-0.4379219
-0.4446875
-0.4458281
-0.4526406
-0.44921880000000003
-0.45118749999999996
-0.44684379999999996
-0.4381406
-0.4345781
-0.4178125
-0.4065
-0.3990156
-0.3969375
-0.389
-0.39351559999999997
-0.392375
-0.3965156
-0.4042031
-0.4079531
-0.42535939999999994
-0.43806249999999997
-0.4450938
-0.447125
-0.45428130000000005
-0.4497656
-0.4527969
-0.44854689999999997
-0.439
-0.43635939999999995
-0.4200313
-0.4078594
-0.4004844
-0.39917189999999997
-0.39135939999999997
-0.39495310000000006
-0.39207810000000004
-0.3975781
-0.4067031
-0.4101875
-0.4269688
-0.43959380000000003
-0.4452188
-0.44737499999999997
-0.4535781
-0.4515781
-0.4539844
-0.4491875
-0.44060940000000004
-0.4370469
-0.4204531
-0.40815629999999997
-0.4014844
-0.3995
-0.3918906
-0.397125
-0.3954531
-0.39856250000000004
-0.40778129999999996
-0.4102656
-0.4263906
-0.4395313
-0.4468594
-0.4491406
-0.45654690000000003
-0.45304690000000003
-0.4552813
-0.4513438
-0.4416719
-0.4376719
-0.4218906
-0.41021880000000005
-0.40198439999999996
-0.4007656
-0.3931094
-0.3972188
-0.3961563
-0.39957810000000005
-0.4086875
-0.41260939999999996
-0.42956249999999996
-0.441125
-0.4480156
-0.4501563
-0.45654690000000003
-0.45271880000000003
-0.4542344
-0.4504531
-0.4414219
-0.43731250000000005
-0.4205469
-0.4097656
-0.4026563
-0.39957810000000005
-0.3935
-0.39660939999999995
-0.3955156
-0.40020310000000003
-0.4078125
-0.4114063
-0.42796880000000004
-0.4396875
-0.4458438
-0.44821880000000003
-0.4550469
-0.4508594
-0.4532188
-0.4493125
-0.44107810000000003
-0.4366094
-0.4200781
-0.4096406
-0.4015781
-0.3996094
-0.3929688
-0.3950938
-0.39285939999999997
-0.3966563
-0.40620310000000004
-0.40893749999999995
-0.4245781
-0.43673439999999997
-0.4449375
-0.44625
-0.45368749999999997
-0.45034379999999996
-0.4524219
-0.4483594
-0.4395156
-0.4369844
-0.4189531
-0.407375
-0.3994063
-0.3978906
-0.39035939999999997
-0.39425
-0.3922969
-0.3954219
-0.4043281
-0.40932810000000003
-0.42578130000000003
-0.43754689999999996
-0.4448438
-0.446875
-0.45362499999999994
-0.4509063
-0.4524219
-0.4490938
-0.43956249999999997
-0.4356875
-0.41896880000000003
-0.4075781
-0.39935940000000003
-0.39778129999999995
-0.3918594
-0.3941563
-0.3922813
-0.3963906
-0.40553130000000004
-0.40904690000000005
-0.4250313
-0.4372813
-0.4456406
-0.4454844
-0.4519375
-0.45032809999999995
-0.4530625
-0.4490938
-0.4398281
-0.4352188
-0.41907809999999995
-0.40807810000000005
-0.399875
-0.39835940000000003
-0.39149999999999996
-0.3947344
-0.3934063
-0.39667189999999997
-0.40701560000000003
-0.41081249999999997
-0.4268594
-0.43837499999999996
-0.4455156
-0.4469688
-0.45375
-0.4501719
-0.4519375
-0.4480625
-0.43907809999999997
-0.43560940000000004
-0.4196094
-0.40803130000000004
-0.4009219
-0.3982031
-0.3914219
-0.3949375
-0.3937188
-0.396875
-0.4073594
-0.4107813
-0.4256406
-0.436375
-0.4448438
-0.4474375
-0.4547969
-0.45123440000000004
-0.4528125
-0.4497813
-0.4404688
-0.4364844
-0.4193125
-0.40848439999999997
-0.4009688
-0.3998281
-0.3922969
-0.39520310000000003
-0.39353130000000003
-0.3974844
-0.4072813
-0.4094688
-0.4251406
-0.4374844
-0.4452813
-0.4478125
-0.4552969
-0.4519219
-0.4530625
-0.44964060000000006
-0.4396563
-0.43662500000000004
-0.42082810000000004
-0.40865630000000003
-0.4017969
-0.3991406
-0.39125
-0.3957969
-0.39453130000000003
-0.397125
-0.4066406
-0.4100781
-0.42645310000000003
-0.438625
-0.4458281
-0.44875
-0.4550781
-0.4526406
-0.4530625
-0.45054690000000003
-0.44140630000000003
-0.4379219
-0.42120310000000005
-0.4098125
-0.4014688
-0.3992344
-0.39209380000000005
-0.3950313
-0.3941406
-0.3974375
-0.4073125
-0.4107656
-0.4270313
-0.4383594
-0.4452188
-0.447
-0.45339060000000003
-0.4527969
-0.4539844
-0.4513125
-0.4414844
-0.4377813
-0.42120310000000005
-0.4098906
-0.40160939999999995
-0.40034379999999997
-0.39285939999999997
-0.3957188
-0.3948125
-0.3982656
-0.40701560000000003
-0.41068750000000004
-0.42743749999999997
-0.43959380000000003
-0.4469531
-0.44925
-0.45434379999999996
-0.4518906
-0.4546719
-0.4510469
-0.44029690000000005
-0.4372813
-0.4213906
-0.40893749999999995
-0.4011094
-0.39879689999999995
-0.3921094
-0.3950313
-0.39485939999999997
-0.39756250000000004
-0.4072813
-0.40984380000000004
-0.4256563
-0.43806249999999997
-0.4464375
-0.4476719
-0.45496879999999995
-0.45215629999999996
-0.45239060000000003
-0.4509375
-0.4413281
-0.43742190000000003
-0.4201875
-0.4092969
-0.4009219
-0.39957810000000005
-0.39245310000000005
-0.3945156
-0.3939844
-0.395625
-0.4065625
-0.4099844
-0.4260781
-0.4383281
-0.4465
-0.44762500000000005
-0.45503129999999997
-0.45304690000000003
-0.45342190000000004
-0.4509531
-0.44135939999999996
-0.43826560000000003
-0.4213906
-0.40850000000000003
-0.40106250000000004
-0.3989219
-0.3910313
-0.3936719
-0.3940156
-0.3959531
-0.40637500000000004
-0.4094375
-0.42626559999999997
-0.4380938
-0.44495310000000005
-0.4476094
-0.4540625
-0.4527031
-0.45339060000000003
-0.45054690000000003
-0.44056249999999997
-0.4377031
-0.4215313
-0.4103438
-0.4016406
-0.3995156
-0.3921094
-0.3945156
-0.3943281
-0.3960938
-0.40698439999999997
-0.4100781
-0.4260938
-0.4388438
-0.4463906
-0.4479688
-0.45490630000000004
-0.45368749999999997
-0.4533594
-0.45129689999999995
-0.4410313
-0.43799999999999994
-0.4207031
-0.4088438
-0.40085940000000003
-0.3988594
-0.3922344
-0.3937656
-0.39457810000000004
-0.3961719
-0.4063125
-0.41112499999999996
-0.4262344
-0.4385156
-0.4464844
-0.4490469
-0.45521880000000003
-0.4534063
-0.45399999999999996
-0.45092190000000004
-0.4407969
-0.43674999999999997
-0.420625
-0.40915630000000003
-0.4021875
-0.3995
-0.3921094
-0.3940313
-0.3948125
-0.39637500000000003
-0.406875
-0.40973439999999994
-0.42546880000000004
-0.43828130000000004
-0.4463281
-0.44817189999999996
-0.4550781
-0.45320309999999997
-0.4532188
-0.45049999999999996
-0.44104689999999996
-0.4382031
-0.4208594
-0.40918750000000004
-0.4019688
-0.39942189999999994
-0.3924219
-0.3943906
-0.39370310000000003
-0.39520310000000003
-0.4062344
-0.4092344
-0.4253125
-0.4379219
-0.4464375
-0.44873440000000003
-0.4554531
-0.45434379999999996
-0.4532188
-0.45198439999999995
-0.4409531
-0.4385313
-0.4214063
-0.40948439999999997
-0.4016563
-0.39904690000000004
-0.392
-0.3943906
-0.39421880000000004
-0.39537500000000003
-0.4063438
-0.40901560000000003
-0.425625
-0.4377031
-0.4452813
-0.4482344
-0.455
-0.4535
-0.4539844
-0.45246879999999995
-0.4417188
-0.4378438
-0.4201875
-0.4085938
-0.400875
-0.3981094
-0.3905156
-0.39245310000000005
-0.39351559999999997
-0.3949844
-0.4058594
-0.4085313
-0.42445309999999997
-0.43720309999999996
-0.4453438
-0.44875
-0.45554690000000003
-0.4539219
-0.4539688
-0.45268749999999996
-0.4412344
-0.43768749999999995
-0.4207813
-0.40846879999999997
-0.4001563
-0.3980625
-0.39135939999999997
-0.393125
-0.39373440000000004
-0.3951563
-0.4064219
-0.40967190000000003
-0.42582810000000004
-0.4384531
-0.44635939999999996
-0.4497813
-0.45649999999999996
-0.4535
-0.4530625
-0.4511563
-0.44026560000000003
-0.43693750000000003
-0.42073439999999995
-0.4087188
-0.4023594
-0.3990938
-0.3910938
-0.39299999999999996
-0.39428130000000006
-0.39535939999999997
-0.40654690000000004
-0.4087188
-0.42475
-0.43823439999999997
-0.44623440000000003
-0.4489219
-0.4552969
-0.45421880000000003
-0.4530625
-0.4513125
-0.4404844
-0.4363906
-0.4198594
-0.4084063
-0.40068750000000003
-0.39814059999999996
-0.3930938
-0.3951719
-0.3943125
-0.3957188
-0.4068438
-0.4097656
-0.42626559999999997
-0.4375156
-0.4458906
-0.4492969
-0.4556563
-0.45464060000000006
-0.4544531
-0.4526094
-0.4422656
-0.439125
-0.4223281
-0.4111406
-0.4039219
-0.4017344
-0.39549999999999996
-0.3971406
-0.3964688
-0.3974375
-0.4090625
-0.4115
-0.4286875
-0.44140630000000003
-0.4495156
-0.45275
-0.4595156
-0.45725
-0.45756250000000004
-0.45735939999999997
-0.44635939999999996
-0.44348439999999995
-0.42662500000000003
-0.41435940000000004
-0.40496879999999996
-0.4015938
-0.3935781
-0.39495310000000006
-0.3956875
-0.3948281
-0.4050156
-0.4080625
-0.4244844
-0.4363438
-0.44306249999999997
-0.44526560000000004
-0.4512188
-0.4493594
-0.4493594
-0.44821880000000003
-0.43826560000000003
-0.43450000000000005
-0.417625
-0.4070781
-0.3995
-0.3981875
-0.39112499999999994
-0.39387500000000003
-0.3942969
-0.3965156
-0.4078594
-0.41128129999999996
-0.4276094
-0.43964060000000005
-0.44799999999999995
-0.4508594
-0.4560781
-0.4537188
-0.4532344
-0.4531563
-0.4412813
-0.4375625
-0.42073439999999995
-0.4103438
-0.4020469
-0.40017189999999997
-0.3929688
-0.39459380000000005
-0.395625
-0.3950781
-0.40692189999999995
-0.41051560000000004
-0.4262344
-0.4377188
-0.446125
-0.44885939999999996
-0.45532809999999996
-0.4537813
-0.4531406
-0.4522344
-0.4413438
-0.4386719
-0.4222031
-0.4099531
-0.4018906
-0.3996406
-0.3932813
-0.39495310000000006
-0.39543750000000005
-0.3957813
-0.4067031
-0.4105469
-0.42657809999999996
-0.4385156
-0.4463438
-0.4499844
-0.45623440000000004
-0.4539531
-0.4529844
-0.4522656
-0.4419219
-0.43842190000000003
-0.4222031
-0.41057810000000006
-0.40345309999999995
-0.400125
-0.39379689999999995
-0.3957188
-0.3959531
-0.39684379999999997
-0.4071094
-0.4101406
-0.4265
-0.4383281
-0.44678130000000005
-0.4494375
-0.4555625
-0.4542969
-0.4534375
-0.4526406
-0.4418594
-0.4383594
-0.4221875
-0.41084380000000004
-0.4028906
-0.39935940000000003
-0.3940781
-0.3940938
-0.39585940000000003
-0.3964219
-0.4083594
-0.41059379999999995
-0.4260313
-0.43875
-0.44715629999999995
-0.44975000000000004
-0.4556563
-0.4543281
-0.4526094
-0.45178130000000005
-0.4412813
-0.4376563
-0.4224219
-0.41106250000000005
-0.4023594
-0.39934379999999997
-0.3928906
-0.394625
-0.3966406
-0.3962656
-0.4074531
-0.4115625
-0.4275156
-0.4406563
-0.4475938
-0.4507813
-0.4561563
-0.45470309999999997
-0.45417189999999996
-0.45299999999999996
-0.4425625
-0.4384688
-0.4228906
-0.410625
-0.4026094
-0.40001559999999997
-0.39320309999999997
-0.3951094
-0.3975781
-0.39725
-0.4084219
-0.41200000000000003
-0.42762500000000003
-0.43871879999999996
-0.4471875
-0.4495
-0.4563438
-0.45464060000000006
-0.4530938
-0.4532813
-0.4422656
-0.43925
-0.4241719
-0.4123906
-0.4041719
-0.400875
-0.3939531
-0.3954063
-0.3973438
-0.3967813
-0.40778129999999996
-0.4114063
-0.4265625
-0.43837499999999996
-0.44629689999999994
-0.4504844
-0.4556875
-0.4544531
-0.45235939999999997
-0.4530938
-0.4428281
-0.4384531
-0.4237344
-0.4115938
-0.404125
-0.4009063
-0.3950938
-0.396
-0.3971719
-0.397375
-0.4080625
-0.41100000000000003
-0.4260625
-0.43745310000000004
-0.44543750000000004
-0.4484531
-0.4547813
-0.45390630000000004
-0.4520625
-0.4521719
-0.4421094
-0.4388438
-0.423875
-0.4113594
-0.4025469
-0.4002969
-0.394375
-0.3960313
-0.3969531
-0.3962188
-0.4075781
-0.4106094
-0.42660939999999997
-0.43896880000000005
-0.44635939999999996
-0.44921880000000003
-0.45567189999999996
-0.4546875
-0.4530625
-0.4528125
-0.44121879999999997
-0.4383594
-0.4225781
-0.4100156
-0.4026406
-0.4000313
-0.3937656
-0.39501559999999997
-0.39598439999999996
-0.3954063
-0.4069531
-0.4104375
-0.4249063
-0.43757809999999997
-0.4455313
-0.4490781
-0.4544219
-0.4533594
-0.45075000000000004
-0.4514531
-0.44107810000000003
-0.43721879999999996
-0.4220938
-0.40915630000000003
-0.4010781
-0.3981875
-0.39220309999999997
-0.3926406
-0.39501559999999997
-0.39399999999999996
-0.4049219
-0.4085781
-0.42325
-0.43614060000000004
-0.44390630000000003
-0.44607810000000003
-0.45184379999999996
-0.45129689999999995
-0.4496875
-0.4502813
-0.4388125
-0.4349375
-0.41973439999999995
-0.4061875
-0.3975781
-0.39670310000000003
-0.3904844
-0.39057810000000004
-0.392375
-0.3927031
-0.4039531
-0.40739060000000005
-0.4218438
-0.4333125
-0.4416719
-0.4453438
-0.45118749999999996
-0.4500781
-0.4479688
-0.4485
-0.4374844
-0.4350156
-0.4192344
-0.4065781
-0.3989688
-0.39601559999999997
-0.39
-0.3904844
-0.3921094
-0.3909688
-0.4041406
-0.40629689999999996
-0.42159379999999996
-0.43442189999999997
-0.4419688
-0.44464060000000005
-0.45023440000000003
-0.4496875
-0.447875
-0.4487813
-0.4380938
-0.4344531
-0.4192656
-0.4065625
-0.3984688
-0.39623440000000004
-0.3895625
-0.38948439999999995
-0.39176560000000005
-0.3910156
-0.4024375
-0.4062656
-0.4210781
-0.43395310000000004
-0.4418125
-0.4442969
-0.4512031
-0.45043750000000005
-0.44821880000000003
-0.44873440000000003
-0.4373906
-0.4337969
-0.4185156
-0.4068281
-0.3985313
-0.3950938
-0.3889844
-0.3906406
-0.39209380000000005
-0.39171880000000003
-0.40303130000000004
-0.4060156
-0.42174999999999996
-0.43443750000000003
-0.44207810000000003
-0.44504689999999997
-0.4502031
-0.45004689999999997
-0.44868749999999996
-0.4499375
-0.4380938
-0.4341875
-0.4194063
-0.40740630000000005
-0.3996406
-0.39601559999999997
-0.3912031
-0.3908594
-0.39307810000000004
-0.3917344
-0.403125
-0.4069688
-0.4211719
-0.4337031
-0.4420469
-0.44495310000000005
-0.4503125
-0.45032809999999995
-0.44799999999999995
-0.44839060000000003
-0.43709380000000003
-0.43325
-0.4192188
-0.40700000000000003
-0.39910939999999995
-0.39506250000000004
-0.3897344
-0.39
-0.39275
-0.3913438
-0.4032031
-0.4066563
-0.41998440000000004
-0.4330313
-0.4408906
-0.44456249999999997
-0.45070309999999997
-0.45034379999999996
-0.44842190000000004
-0.45032809999999995
-0.4373594
-0.4345313
-0.4200313
-0.4066406
-0.3984063
-0.3957188
-0.3894063
-0.3902031
-0.3926094
-0.3903906
-0.4017969
-0.404875
-0.4204844
-0.4334531
-0.442
-0.44518749999999996
-0.4511563
-0.4519375
-0.44875
-0.450625
-0.43901560000000006
-0.4357031
-0.4203281
-0.4078906
-0.39831249999999996
-0.3953906
-0.38928130000000005
-0.38904690000000003
-0.3923125
-0.39112499999999994
-0.4036875
-0.4064688
-0.4210938
-0.4342031
-0.4413281
-0.4457031
-0.4515
-0.4520313
-0.4492969
-0.4496719
-0.4383281
-0.4339844
-0.4191719
-0.4058594
-0.39784379999999997
-0.39535939999999997
-0.38985939999999997
-0.38985939999999997
-0.39379689999999995
-0.3923438
-0.4029531
-0.4068906
-0.4218594
-0.43440629999999997
-0.4420469
-0.4462656
-0.4517031
-0.4513125
-0.4488125
-0.45023440000000003
-0.4384375
-0.43442189999999997
-0.4195781
-0.4076719
-0.3989844
-0.3959063
-0.3901563
-0.39034379999999996
-0.3930625
-0.3912656
-0.4039219
-0.4069375
-0.4217813
-0.4352813
-0.4434063
-0.4454844
-0.4507656
-0.45135939999999997
-0.4479219
-0.4499375
-0.4369844
-0.43443750000000003
-0.4198594
-0.40660939999999995
-0.3983438
-0.3962813
-0.3911719
-0.3909531
-0.39370310000000003
-0.39149999999999996
-0.4038594
-0.4062188
-0.4209844
-0.4339063
-0.4423906
-0.4465781
-0.4514219
-0.4510469
-0.4479219
-0.4497969
-0.4379531
-0.43492190000000003
-0.4200313
-0.40729689999999996
-0.399875
-0.3962813
-0.3908594
-0.3903125
-0.3922813
-0.39139060000000003
-0.40278129999999995
-0.40595309999999996
-0.4204063
-0.4334844
-0.4433438
-0.44623440000000003
-0.45215629999999996
-0.4523125
-0.4495156
-0.4511563
-0.4398594
-0.4353125
-0.42073439999999995
-0.4083281
-0.3992656
-0.3963594
-0.39035939999999997
-0.39032809999999996
-0.3927969
-0.39160939999999994
-0.40375
-0.40620310000000004
-0.4210781
-0.43460940000000003
-0.4430938
-0.4467969
-0.4522813
-0.45207810000000004
-0.4487656
-0.4513281
-0.43940629999999997
-0.436125
-0.4206719
-0.4075
-0.4000938
-0.39670310000000003
-0.39125
-0.3905156
-0.39385939999999997
-0.3928906
-0.405875
-0.40850000000000003
-0.4219844
-0.4362344
-0.44337499999999996
-0.44740630000000003
-0.4519063
-0.4522344
-0.44890630000000004
-0.45057810000000004
-0.4398594
-0.43556249999999996
-0.42075
-0.40770310000000004
-0.3996719
-0.39501559999999997
-0.38890630000000004
-0.3886094
-0.39123440000000004
-0.38890630000000004
-0.4010781
-0.40448439999999997
-0.4182344
-0.4304844
-0.4391406
-0.4430156
-0.447875
-0.44771880000000003
-0.44403129999999996
-0.447
-0.4352188
-0.43146880000000004
-0.41590629999999995
-0.40348439999999997
-0.3954219
-0.3919688
-0.3865
-0.38623440000000003
-0.3894688
-0.38762500000000005
-0.399625
-0.4025313
-0.4172813
-0.4298281
-0.43745310000000004
-0.44225000000000003
-0.4458281
-0.44707810000000003
-0.44379689999999994
-0.44523440000000003
-0.4323594
-0.4301719
-0.4150313
-0.40181249999999996
-0.3940781
-0.3906563
-0.38475000000000004
-0.3848125
-0.38825000000000004
-0.3855938
-0.3978125
-0.4011406
-0.4156719
-0.4285
-0.43690629999999997
-0.44087499999999996
-0.44539059999999997
-0.446
-0.44237499999999996
-0.44518749999999996
-0.4330313
-0.42950000000000005
-0.4146094
-0.4020469
-0.39317189999999996
-0.3914531
-0.3855469
-0.3845156
-0.388125
-0.3858281
-0.3974844
-0.4017969
-0.4156719
-0.4280156
-0.43684379999999995
-0.4398594
-0.44454689999999997
-0.44567189999999995
-0.4428125
-0.44503129999999996
-0.43259380000000003
-0.42907809999999996
-0.4136875
-0.4015313
-0.3939219
-0.3904219
-0.38501559999999996
-0.38439059999999997
-0.3876094
-0.3848906
-0.39767189999999997
-0.4007969
-0.4155
-0.42825
-0.4363125
-0.43964060000000005
-0.4447813
-0.4455469
-0.44173439999999997
-0.44417189999999995
-0.43248440000000005
-0.4289063
-0.41484380000000004
-0.4025313
-0.3940313
-0.3904688
-0.38504689999999997
-0.3849844
-0.38807810000000004
-0.385375
-0.39746879999999996
-0.4013594
-0.415
-0.4282188
-0.4369531
-0.4398438
-0.4448594
-0.4459688
-0.4419844
-0.4446719
-0.43364060000000004
-0.4307969
-0.41657809999999995
-0.4034219
-0.3954531
-0.3918281
-0.38715629999999995
-0.38629689999999994
-0.39006250000000003
-0.38768749999999996
-0.39995310000000006
-0.4042344
-0.4182344
-0.430375
-0.4386875
-0.44279690000000005
-0.4469844
-0.4483438
-0.4451406
-0.4483281
-0.4354688
-0.4327344
-0.4168438
-0.40379689999999996
-0.3945
-0.3904844
-0.38490630000000003
-0.3836563
-0.3869063
-0.3829531
-0.3952969
-0.3976094
-0.41143749999999996
-0.42292189999999996
-0.4302813
-0.434625
-0.4390938
-0.4404531
-0.4383281
-0.44225000000000003
-0.4295938
-0.4263594
-0.4122656
-0.4004375
-0.3918281
-0.3890938
-0.3837656
-0.3842969
-0.3882344
-0.38504689999999997
-0.3970469
-0.40017189999999997
-0.41442189999999995
-0.428
-0.4362344
-0.4399688
-0.44539059999999997
-0.4470156
-0.4437031
-0.44495310000000005
-0.43254689999999996
-0.4288438
-0.41393749999999996
-0.4017813
-0.3942656
-0.3904219
-0.38523440000000003
-0.38475000000000004
-0.3879844
-0.3840469
-0.3968906
-0.40020310000000003
-0.4147188
-0.42834380000000005
-0.4362969
-0.4398906
-0.44490630000000003
-0.4463438
-0.44209380000000004
-0.44567189999999995
-0.4328906
-0.42834380000000005
-0.4145469
-0.4019063
-0.3938281
-0.3905313
-0.3854219
-0.3852969
-0.3893125
-0.3857656
-0.39784379999999997
-0.4021875
-0.4151719
-0.4277344
-0.4363125
-0.4409375
-0.44490630000000003
-0.446
-0.44206249999999997
-0.444375
-0.43276560000000003
-0.4292969
-0.415625
-0.40282809999999997
-0.3947969
-0.3908281
-0.3874219
-0.38639060000000003
-0.3903125
-0.38653129999999997
-0.3986719
-0.40137500000000004
-0.41525
-0.4294531
-0.4367188
-0.44135939999999996
-0.44549999999999995
-0.44604689999999997
-0.44209380000000004
-0.4461563
-0.4341875
-0.4302344
-0.41553130000000005
-0.40307810000000005
-0.39448439999999996
-0.3902813
-0.38589060000000003
-0.38521880000000003
-0.3896094
-0.3862656
-0.3980625
-0.40137500000000004
-0.4152656
-0.4270469
-0.4367969
-0.4408438
-0.44526560000000004
-0.4462031
-0.4422969
-0.4462813
-0.43359380000000003
-0.4305469
-0.41579689999999997
-0.40399999999999997
-0.3957188
-0.39220309999999997
-0.3865625
-0.3855938
-0.3901563
-0.38625
-0.3986406
-0.402375
-0.41590629999999995
-0.4288594
-0.4375156
-0.4415781
-0.446
-0.44839060000000003
-0.4441406
-0.4468125
-0.43440629999999997
-0.4305
-0.4170938
-0.40382809999999997
-0.3960313
-0.39171880000000003
-0.3872969
-0.3851406
-0.3890938
-0.3855156
-0.39817189999999997
-0.401625
-0.41515630000000003
-0.4289063
-0.4371563
-0.44173439999999997
-0.446125
-0.4469688
-0.4430938
-0.4466094
-0.43439059999999996
-0.4308125
-0.4167188
-0.40346879999999996
-0.3939844
-0.3906875
-0.3855469
-0.3846875
-0.3883594
-0.3847813
-0.3977344
-0.4014219
-0.4153281
-0.4280469
-0.4365938
-0.44035939999999996
-0.4443125
-0.4459063
-0.4416094
-0.4449375
-0.432875
-0.42956249999999996
-0.41525
-0.4021875
-0.3946875
-0.3909688
-0.38592190000000004
-0.3855156
-0.38995310000000005
-0.386
-0.3985
-0.4014063
-0.4151406
-0.4280156
-0.43604689999999996
-0.4410313
-0.44503129999999996
-0.4463438
-0.4423281
-0.4461719
-0.4330781
-0.43046880000000004
-0.41648440000000003
-0.4044063
-0.396875
-0.39214060000000006
-0.38785939999999997
-0.3862656
-0.3904219
-0.3860313
-0.39799999999999996
-0.40137500000000004
-0.41553130000000005
-0.42810940000000003
-0.4375156
-0.4401094
-0.4452188
-0.44646880000000005
-0.44253129999999996
-0.44629689999999994
-0.4338594
-0.43045310000000003
-0.4171563
-0.4044375
-0.39592190000000005
-0.3921875
-0.38745310000000005
-0.38581249999999995
-0.39001559999999996
-0.38504689999999997
-0.39817189999999997
-0.4018281
-0.41600000000000004
-0.42901560000000005
-0.4375313
-0.4423438
-0.446875
-0.4482969
-0.44357810000000003
-0.4476094
-0.43424999999999997
-0.43056249999999996
-0.4164063
-0.40348439999999997
-0.3945156
-0.3899375
-0.38592190000000004
-0.3845
-0.38820309999999997
-0.3848125
-0.3975469
-0.4004219
-0.4142813
-0.42690629999999996
-0.43578130000000004
-0.4400313
-0.4442344
-0.4455313
-0.4415156
-0.4444219
-0.4320313
-0.428
-0.41520310000000005
-0.4014219
-0.39307810000000004
-0.3893594
-0.3849219
-0.3825937
-0.3870625
-0.38337499999999997
-0.3957344
-0.399625
-0.4125625
-0.4253281
-0.43443750000000003
-0.4378438
-0.4420469
-0.44275
-0.4393594
-0.4431406
-0.43059379999999997
-0.42674999999999996
-0.414
-0.40065629999999997
-0.392625
-0.3883438
-0.3840781
-0.3824844
-0.3860781
-0.38299999999999995
-0.3949219
-0.3979844
-0.4121406
-0.42393749999999997
-0.4324063
-0.43721879999999996
-0.441
-0.44273440000000003
-0.4380313
-0.44254689999999997
-0.4301719
-0.4263594
-0.4129688
-0.4007031
-0.3925469
-0.3872969
-0.3826563
-0.3816875
-0.3866094
-0.381625
-0.39457810000000004
-0.39751559999999997
-0.4110781
-0.4235313
-0.43237499999999995
-0.4366094
-0.4416563
-0.4432031
-0.4388281
-0.4429688
-0.42995310000000003
-0.4260938
-0.4136094
-0.40067189999999997
-0.39160939999999994
-0.38762500000000005
-0.38262500000000005
-0.3809531
-0.3849688
-0.3810625
-0.3944531
-0.3975
-0.41089060000000005
-0.4232031
-0.43276560000000003
-0.43723439999999997
-0.4413438
-0.4431563
-0.4396875
-0.4425781
-0.43056249999999996
-0.4265469
-0.41376559999999996
-0.4001563
-0.39176560000000005
-0.387
-0.382875
-0.3819531
-0.3862031
-0.3811719
-0.39368749999999997
-0.3967969
-0.4103594
-0.4240469
-0.4334375
-0.4373906
-0.4416875
-0.4429844
-0.43925
-0.443125
-0.43042189999999997
-0.4269375
-0.4131563
-0.40064059999999996
-0.3912656
-0.38751559999999996
-0.3827969
-0.3815469
-0.3864219
-0.381875
-0.39417189999999996
-0.39778129999999995
-0.40979689999999996
-0.4233125
-0.43262500000000004
-0.4371094
-0.4409063
-0.4429219
-0.43826560000000003
-0.4424688
-0.42975
-0.42631250000000004
-0.41318750000000004
-0.4008281
-0.39198439999999996
-0.3872344
-0.383625
-0.38146880000000005
-0.3867344
-0.3822969
-0.39459380000000005
-0.3978594
-0.41082810000000003
-0.4231719
-0.43214060000000004
-0.4365938
-0.4411406
-0.4423906
-0.43825000000000003
-0.44245310000000004
-0.4299063
-0.4265625
-0.4142344
-0.40168750000000003
-0.3930938
-0.3883281
-0.3830938
-0.3809063
-0.3854531
-0.3821719
-0.3939219
-0.39770310000000003
-0.4114688
-0.423
-0.4327813
-0.4368594
-0.44087499999999996
-0.4435
-0.439
-0.4433906
-0.43024999999999997
-0.4275625
-0.4146406
-0.4011563
-0.3919375
-0.3880313
-0.3829531
-0.38175
-0.3865469
-0.3819219
-0.3939844
-0.3971719
-0.4109219
-0.42396880000000003
-0.43268749999999995
-0.4377344
-0.4412813
-0.4433438
-0.43875
-0.4433594
-0.43075
-0.4273906
-0.4145156
-0.4011406
-0.3922813
-0.3871719
-0.3827969
-0.38104689999999997
-0.3859688
-0.38145310000000004
-0.3945469
-0.3987813
-0.41160939999999996
-0.4235781
-0.4330313
-0.4378438
-0.4413906
-0.4430469
-0.4387656
-0.44310940000000004
-0.4305313
-0.4264219
-0.41362499999999996
-0.4021406
-0.3921875
-0.3892031
-0.3831406
-0.381875
-0.3861406
-0.3818594
-0.3945
-0.39807810000000005
-0.4107188
-0.4232813
-0.433
-0.4369531
-0.44075000000000003
-0.44245310000000004
-0.438625
-0.44225000000000003
-0.42987499999999995
-0.42710940000000003
-0.41432810000000003
-0.40134380000000003
-0.3925781
-0.3880313
-0.38368749999999996
-0.3823438
-0.3862813
-0.38176560000000004
-0.3940781
-0.3980469
-0.41053130000000004
-0.4232969
-0.4328438
-0.4368594
-0.4408281
-0.4432031
-0.4389375
-0.444375
-0.4313906
-0.4282969
-0.4150156
-0.402375
-0.3932344
-0.3892031
-0.3848281
-0.3827813
-0.388125
-0.383125
-0.3948438
-0.39784379999999997
-0.4103438
-0.42340629999999996
-0.4332969
-0.4372969
-0.4414844
-0.4430313
-0.4392188
-0.4436094
-0.4316406
-0.42828130000000003
-0.41482810000000003
-0.4025938
-0.3935938
-0.3891406
-0.3845313
-0.3817969
-0.38676560000000004
-0.38285939999999996
-0.3957031
-0.3994531
-0.410875
-0.42370310000000005
-0.4328438
-0.4381563
-0.4417031
-0.4443594
-0.44025
-0.4441406
-0.4312344
-0.4276406
-0.4150781
-0.4025156
-0.3927969
-0.3884531
-0.384125
-0.3824219
-0.38768749999999996
-0.3830938
-0.3959375
-0.3989844
-0.4118906
-0.4241719
-0.43428130000000004
-0.4388281
-0.442125
-0.44459380000000004
-0.43990630000000003
-0.44428130000000005
-0.4319844
-0.42825
-0.41456249999999994
-0.4020469
-0.3930625
-0.38975000000000004
-0.3855313
-0.3825781
-0.3869219
-0.38214060000000005
-0.3952344
-0.3981875
-0.4111875
-0.4242031
-0.4341719
-0.43840629999999997
-0.44251559999999995
-0.4442969
-0.4388906
-0.4432031
-0.4313281
-0.4272188
-0.4137188
-0.40278129999999995
-0.3934688
-0.3889531
-0.3851406
-0.3824844
-0.3888281
-0.3842969
-0.39598439999999996
-0.399375
-0.4117344
-0.4234375
-0.4331406
-0.4382031
-0.4419688
-0.44337499999999996
-0.4386875
-0.4438281
-0.43254689999999996
-0.4286719
-0.41620310000000005
-0.4040313
-0.394125
-0.3887656
-0.3844688
-0.38337499999999997
-0.3875781
-0.38276560000000004
-0.3950313
-0.3984688
-0.4114063
-0.42412500000000003
-0.43434379999999995
-0.4383906
-0.44268749999999996
-0.4446719
-0.4395469
-0.44454689999999997
-0.43193750000000003
-0.4280156
-0.4153125
-0.4032031
-0.3944531
-0.3897188
-0.38526560000000004
-0.3834063
-0.3880156
-0.3836719
-0.3956094
-0.39875
-0.4107813
-0.42407809999999996
-0.4344531
-0.43934379999999995
-0.4432344
-0.4453281
-0.4408906
-0.4459375
-0.4332188
-0.43024999999999997
-0.4163438
-0.40496879999999996
-0.39506250000000004
-0.39098439999999995
-0.38618749999999996
-0.3850781
-0.3898281
-0.3851406
-0.3978906
-0.402
-0.4141719
-0.42590629999999996
-0.4366719
-0.4416875
-0.4458906
-0.44875
-0.445
-0.4492344
-0.4363125
-0.43189059999999996
-0.4192344
-0.40778129999999996
-0.3973594
-0.3933594
-0.39026560000000005
-0.387125
-0.39043750000000005
-0.3842969
-0.3967656
-0.39989060000000004
-0.41148440000000003
-0.42360939999999997
-0.43334380000000006
-0.43799999999999994
-0.4406406
-0.4428281
-0.43700000000000006
-0.4415469
-0.4284375
-0.42407809999999996
-0.4115625
-0.4007813
-0.39215629999999996
-0.38775
-0.38428130000000005
-0.3822656
-0.38839060000000003
-0.3852969
-0.3969375
-0.40037500000000004
-0.4118906
-0.4248438
-0.4351563
-0.4401719
-0.4442344
-0.4462813
-0.4412969
-0.44587499999999997
-0.4346875
-0.43151560000000005
-0.418
-0.40565629999999997
-0.3957656
-0.3914531
-0.38740630000000004
-0.38503129999999997
-0.3903906
-0.38557810000000003
-0.3971719
-0.4000625
-0.4125781
-0.42450000000000004
-0.43475
-0.43928130000000004
-0.4429688
-0.44646880000000005
-0.4416406
-0.4460156
-0.4337031
-0.4304844
-0.4173906
-0.4060938
-0.3961406
-0.3914531
-0.3872813
-0.3848125
-0.3893125
-0.38432810000000006
-0.3972656
-0.4002969
-0.4128594
-0.4234688
-0.43326560000000003
-0.4389063
-0.4426406
-0.4444688
-0.4399844
-0.4454063
-0.43285939999999995
-0.4296875
-0.417875
-0.40564059999999996
-0.39598439999999996
-0.39034379999999996
-0.3865625
-0.383625
-0.38917189999999996
-0.3845156
-0.39709380000000005
-0.4004063
-0.4131563
-0.4259219
-0.4355
-0.44026560000000003
-0.4432813
-0.4462031
-0.4414375
-0.4461094
-0.4335625
-0.4298594
-0.4179844
-0.4050625
-0.39506250000000004
-0.3916875
-0.3886094
-0.3857813
-0.39006250000000003
-0.384125
-0.3969688
-0.4004375
-0.41309379999999996
-0.42504689999999995
-0.43498440000000005
-0.4413438
-0.4444531
-0.4464219
-0.4420469
-0.4464844
-0.4337344
-0.4309844
-0.4186875
-0.4062656
-0.39618749999999997
-0.39139060000000003
-0.3882188
-0.3858438
-0.39067189999999996
-0.3857969
-0.3984688
-0.40151560000000003
-0.413125
-0.425375
-0.4352813
-0.44007809999999997
-0.4432969
-0.44653129999999996
-0.44176560000000004
-0.44675
-0.4343125
-0.43178130000000003
-0.4198594
-0.40717190000000003
-0.3963594
-0.39160939999999994
-0.388125
-0.3852813
-0.3910156
-0.38604689999999997
-0.3980156
-0.4014063
-0.4132031
-0.4261719
-0.43573439999999997
-0.44140630000000003
-0.4444219
-0.446125
-0.4415
-0.4473281
-0.4359688
-0.4321875
-0.4203125
-0.40760939999999996
-0.397375
-0.39171880000000003
-0.38785939999999997
-0.38521880000000003
-0.3914844
-0.3861719
-0.3980938
-0.4024531
-0.4144375
-0.42668750000000005
-0.43657809999999997
-0.4415156
-0.44503129999999996
-0.4475781
-0.4425938
-0.4476094
-0.4356406
-0.4322969
-0.41973439999999995
-0.40660939999999995
-0.39707810000000004
-0.3925938
-0.38917189999999996
-0.38653129999999997
-0.39209380000000005
-0.3856563
-0.39825000000000005
-0.4018438
-0.41387500000000005
-0.4267188
-0.4373594
-0.4426094
-0.4456406
-0.44889060000000003
-0.44293750000000004
-0.4482656
-0.43590629999999997
-0.43225
-0.42051560000000004
-0.4075938
-0.3983281
-0.39307810000000004
-0.390625
-0.3874375
-0.39299999999999996
-0.38771880000000003
-0.3996094
-0.40325000000000005
-0.4157188
-0.4280625
-0.4367969
-0.4427188
-0.44549999999999995
-0.4485781
-0.4435156
-0.4484531
-0.4361875
-0.43220309999999995
-0.4201719
-0.4080469
-0.39870310000000003
-0.39373440000000004
-0.3913281
-0.3882813
-0.39331249999999995
-0.3880313
-0.40032809999999996
-0.4037813
-0.4153438
-0.42710940000000003
-0.43690629999999997
-0.44245310000000004
-0.4462031
-0.44856250000000003
-0.4438281
-0.4488125
-0.43720309999999996
-0.4344531
-0.42192189999999996
-0.4092969
-0.3989063
-0.3934531
-0.3904844
-0.3863438
-0.3922656
-0.3872656
-0.39935940000000003
-0.4028125
-0.4132813
-0.4255156
-0.4358125
-0.4409688
-0.4432656
-0.4468594
-0.4423281
-0.44785939999999996
-0.43487499999999996
-0.4309375
-0.4200313
-0.4065781
-0.3970469
-0.3914844
-0.3889375
-0.38549999999999995
-0.39026560000000005
-0.38535939999999996
-0.39745310000000006
-0.4011094
-0.412875
-0.4250938
-0.4351563
-0.4409375
-0.4430938
-0.44587499999999997
-0.4415
-0.4461563
-0.43354689999999996
-0.4302344
-0.41871879999999995
-0.4060469
-0.39589060000000004
-0.3905313
-0.3882656
-0.3839844
-0.38848439999999995
-0.384
-0.3966875
-0.4004375
-0.4120469
-0.42396880000000003
-0.43498440000000005
-0.4406875
-0.442125
-0.4458281
-0.4408125
-0.4465469
-0.4334688
-0.4296563
-0.4171875
-0.4050156
-0.3961719
-0.3906563
-0.38782809999999995
-0.38434379999999996
-0.38925
-0.3837031
-0.3961406
-0.4000625
-0.4114688
-0.4241406
-0.4344844
-0.4406875
-0.4426094
-0.4463281
-0.4409375
-0.4453438
-0.4329063
-0.429
-0.4177344
-0.40584380000000003
-0.39537500000000003
-0.3907188
-0.3880156
-0.38454689999999997
-0.389625
-0.3849219
-0.3961719
-0.3988906
-0.4110938
-0.423875
-0.43443750000000003
-0.4395313
-0.44176560000000004
-0.4445
-0.4409063
-0.44512500000000005
-0.43296880000000004
-0.4296719
-0.4177344
-0.4061406
-0.3954063
-0.3912656
-0.3884688
-0.3844219
-0.39001559999999996
-0.3842969
-0.3965156
-0.3994063
-0.41106250000000005
-0.4228125
-0.4339063
-0.43939059999999996
-0.4409063
-0.4454063
-0.4400938
-0.4450625
-0.4336094
-0.43075
-0.41845309999999997
-0.40620310000000004
-0.3957188
-0.3904063
-0.3888281
-0.38426560000000004
-0.3894219
-0.38439059999999997
-0.3963281
-0.3988906
-0.4110938
-0.4239219
-0.4339844
-0.4404844
-0.4428281
-0.4458438
-0.4402031
-0.4454531
-0.43325
-0.43042189999999997
-0.41896880000000003
-0.4057344
-0.3957813
-0.3897969
-0.3876719
-0.38384369999999995
-0.38879689999999995
-0.38310940000000004
-0.3962813
-0.40020310000000003
-0.4117344
-0.42339060000000006
-0.4337813
-0.4399688
-0.4417188
-0.44609380000000004
-0.4411875
-0.4457344
-0.43326560000000003
-0.4292188
-0.41760939999999996
-0.40553130000000004
-0.3957813
-0.39001559999999996
-0.38745310000000005
-0.3837031
-0.3885469
-0.383875
-0.3964219
-0.4005625
-0.4119688
-0.423375
-0.4334531
-0.44056249999999997
-0.4425781
-0.44618749999999996
-0.4407188
-0.4447344
-0.43220309999999995
-0.42896880000000004
-0.41734380000000004
-0.4050938
-0.39434379999999997
-0.38921880000000003
-0.3877969
-0.38432810000000006
-0.39006250000000003
-0.3847656
-0.3968281
-0.3991406
-0.41068750000000004
-0.4229063
-0.4339375
-0.43992190000000003
-0.4416719
-0.4454844
-0.44075000000000003
-0.4452188
-0.4326563
-0.42976559999999997
-0.4182813
-0.4061563
-0.3950938
-0.38975000000000004
-0.3877813
-0.3833281
-0.38875
-0.3835
-0.3960313
-0.3992344
-0.41112499999999996
-0.4232813
-0.4330469
-0.4392188
-0.44040630000000003
-0.4446719
-0.4399688
-0.44535939999999996
-0.43310940000000003
-0.4291094
-0.4185625
-0.4057344
-0.39585940000000003
-0.3897813
-0.38740630000000004
-0.3830938
-0.3883438
-0.3834375
-0.3960938
-0.3992344
-0.41053130000000004
-0.42179690000000003
-0.4328906
-0.4394531
-0.4416563
-0.44501559999999996
-0.4406875
-0.4456406
-0.4328438
-0.4299063
-0.4183594
-0.406
-0.3954688
-0.38957810000000004
-0.3866875
-0.38321869999999997
-0.38885939999999997
-0.3832344
-0.3954688
-0.3986875
-0.4103594
-0.42168750000000005
-0.43306249999999996
-0.4395781
-0.44098439999999994
-0.4458281
-0.44039059999999997
-0.44607810000000003
-0.43292189999999997
-0.4291094
-0.41803130000000005
-0.4059375
-0.3958281
-0.3887188
-0.38773440000000003
-0.3832969
-0.3884531
-0.3833906
-0.3957969
-0.3989531
-0.4097188
-0.4217031
-0.4323438
-0.4393594
-0.4413281
-0.4455625
-0.4397969
-0.4440781
-0.4326563
-0.4297031
-0.4190313
-0.40612499999999996
-0.3956875
-0.3893125
-0.3871094
-0.383125
-0.3880938
-0.38310940000000004
-0.3956875
-0.3986719
-0.40879689999999996
-0.42125
-0.4320313
-0.43837499999999996
-0.440375
-0.4441094
-0.4398281
-0.4447969
-0.433
-0.4297969
-0.417625
-0.4057188
-0.3956094
-0.3895156
-0.3877031
-0.3837656
-0.3890156
-0.38371879999999997
-0.39585940000000003
-0.3989688
-0.410125
-0.421625
-0.4325156
-0.43928130000000004
-0.4404688
-0.4454844
-0.44057810000000003
-0.4456406
-0.43392189999999997
-0.4299219
-0.4178438
-0.4059063
-0.39525
-0.3897969
-0.3884063
-0.3832344
-0.3885469
-0.38276560000000004
-0.3953906
-0.39879689999999995
-0.40979689999999996
-0.42174999999999996
-0.4317031
-0.43848439999999994
-0.4397656
-0.4455156
-0.440375
-0.4449219
-0.4322813
-0.42960940000000003
-0.418
-0.40643749999999995
-0.39589060000000004
-0.3892344
-0.38837499999999997
-0.3831875
-0.38831249999999995
-0.384125
-0.396
-0.3986719
-0.4100938
-0.4224219
-0.4334844
-0.4389063
-0.44029690000000005
-0.445375
-0.440375
-0.4457656
-0.4338906
-0.42960940000000003
-0.4186875
-0.40606250000000005
-0.3961094
-0.3896719
-0.3885469
-0.384
-0.3886563
-0.3836406
-0.3961563
-0.39931249999999996
-0.4100938
-0.4225156
-0.4327188
-0.4384375
-0.44049999999999995
-0.4457188
-0.44078130000000004
-0.44543750000000004
-0.4326094
-0.4285
-0.4181563
-0.4069688
-0.39549999999999996
-0.3903125
-0.38820309999999997
-0.3830469
-0.3882969
-0.3833281
-0.3962813
-0.39893749999999994
-0.40870310000000004
-0.4215625
-0.43334380000000006
-0.439
-0.43971879999999997
-0.4447344
-0.43956249999999997
-0.44487499999999996
-0.4324688
-0.4292188
-0.41950000000000004
-0.4069531
-0.39554690000000003
-0.3901563
-0.3891875
-0.3837656
-0.3893906
-0.38325000000000004
-0.39535939999999997
-0.3994531
-0.4089219
-0.4218594
-0.43174999999999997
-0.43785939999999995
-0.4390625
-0.4440625
-0.43995310000000004
-0.4451094
-0.4333281
-0.4303906
-0.4196094
-0.40775
-0.3968906
-0.38903129999999997
-0.38751559999999996
-0.3827031
-0.3880625
-0.38342190000000004
-0.394875
-0.3978906
-0.40839060000000005
-0.4218125
-0.43245310000000003
-0.43842190000000003
-0.43943750000000004
-0.4437031
-0.4394531
-0.44526560000000004
-0.4329063
-0.4292969
-0.4181563
-0.4053438
-0.3951094
-0.3894688
-0.3879688
-0.38254689999999997
-0.3883438
-0.3833438
-0.39629689999999995
-0.3995156
-0.4093438
-0.4223281
-0.4330781
-0.4395313
-0.4404844
-0.4453438
-0.44040630000000003
-0.44607810000000003
-0.4337031
-0.4307188
-0.4207656
-0.40846879999999997
-0.39756250000000004
-0.390875
-0.39026560000000005
-0.3860781
-0.39137500000000003
-0.3863438
-0.39839060000000004
-0.40209380000000006
-0.4113594
-0.42476559999999997
-0.43526560000000003
-0.4425625
-0.44245310000000004
-0.44754689999999997
-0.44306249999999997
-0.4495156
-0.43653129999999996
-0.4323281
-0.4223594
-0.4082656
-0.3962188
-0.38989060000000003
-0.38820309999999997
-0.3826563
-0.3866875
-0.38167189999999995
-0.39287500000000003
-0.3964219
-0.4065
-0.4185156
