0.000000e+00
0.000000e+00
0.000000e+00
0.000000e+00
0.000000e+00
0.000000e+00
0.000000e+00
0.000000e+00
0.000000e+00
0.000000e+00
0.000000e+00
0.000000e+00
0.000000e+00
0.000000e+00
0.000000e+00
0.000000e+00
0.000000e+00
0.000000e+00
0.000000e+00
0.000000e+00
0.000000e+00
0.000000e+00
0.000000e+00
0.000000e+00
0.000000e+00
0.000000e+00
0.000000e+00
0.000000e+00
0.000000e+00
0.000000e+00
0.000000e+00
0.000000e+00
0.000000e+00
0.000000e+00
0.000000e+00
0.000000e+00
0.000000e+00
0.000000e+00
0.000000e+00
0.000000e+00
0.000000e+00
0.000000e+00
0.000000e+00
0.000000e+00
0.000000e+00
0.000000e+00
0.000000e+00
0.000000e+00
0.000000e+00
0.000000e+00
0.000000e+00
0.000000e+00
0.000000e+00
0.000000e+00
0.000000e+00
0.000000e+00
0.000000e+00
0.000000e+00
0.000000e+00
0.000000e+00
0.000000e+00
0.000000e+00
0.000000e+00
0.000000e+00
0.000000e+00
0.000000e+00
0.000000e+00
0.000000e+00
0.000000e+00
0.000000e+00
0.000000e+00
0.000000e+00
0.000000e+00
0.000000e+00
0.000000e+00
0.000000e+00
0.000000e+00
0.000000e+00
0.000000e+00
0.000000e+00
0.000000e+00
0.000000e+00
0.000000e+00
0.000000e+00
0.000000e+00
0.000000e+00
0.000000e+00
0.000000e+00
0.000000e+00
0.000000e+00
0.000000e+00
0.000000e+00
0.000000e+00
0.000000e+00
0.000000e+00
0.000000e+00
0.000000e+00
0.000000e+00
0.000000e+00
0.000000e+00
0.000000e+00
0.000000e+00
0.000000e+00
0.000000e+00
0.000000e+00
0.000000e+00
0.000000e+00
0.000000e+00
0.000000e+00
0.000000e+00
0.000000e+00
0.000000e+00
0.000000e+00
0.000000e+00
0.000000e+00
0.000000e+00
0.000000e+00
0.000000e+00
0.000000e+00
0.000000e+00
0.000000e+00
0.000000e+00
0.000000e+00
0.000000e+00
0.000000e+00
-6.291599e+01
-3.132632e+01
3.836487e+00
2.448914e+00
-6.229028e+01
-6.367343e+01
-2.844943e+01
3.056122e+00
3.529663e-01
-5.994708e+01
-6.268753e+01
-3.123367e+01
3.931091e+00
2.491547e+00
-6.231131e+01
-6.368256e+01
-2.853641e+01
3.018372e+00
1.748657e-01
-6.006464e+01
-6.293332e+01
-3.132632e+01
3.836487e+00
2.448914e+00
-6.229028e+01
-6.367343e+01
-2.844943e+01
3.056122e+00
3.529663e-01
-5.994708e+01
-6.268753e+01
-3.123367e+01
3.931091e+00
2.491547e+00
-6.231131e+01
-6.368256e+01
-2.853641e+01
3.018372e+00
1.748657e-01
-6.006464e+01
-6.293332e+01
-3.132632e+01
3.836487e+00
2.448914e+00
-6.229028e+01
-6.367343e+01
-2.844943e+01
3.056122e+00
3.529663e-01
-5.994708e+01
-6.268753e+01
-3.123367e+01
3.931091e+00
2.491547e+00
-6.231131e+01
-6.368256e+01
-2.853641e+01
3.018372e+00
1.748657e-01
-6.006464e+01
-6.293332e+01
-3.132632e+01
3.836487e+00
2.448914e+00
-6.229028e+01
-6.367343e+01
-2.844943e+01
3.056122e+00
3.529663e-01
-5.994708e+01
-6.268753e+01
-3.123367e+01
3.931091e+00
2.491547e+00
-6.231131e+01
-6.368256e+01
-2.853641e+01
3.018372e+00
1.748657e-01
-6.006464e+01
-6.293332e+01
-3.132632e+01
3.836487e+00
2.448914e+00
-6.229028e+01
-6.367343e+01
-2.844943e+01
3.056122e+00
3.529663e-01
-5.994708e+01
-6.268753e+01
-3.123367e+01
3.931091e+00
2.491547e+00
-6.231131e+01
-6.368256e+01
-2.853641e+01
3.018372e+00
1.748657e-01
-6.006464e+01
-6.293332e+01
-3.132645e+01
3.836243e+00
2.448486e+00
-6.229062e+01
-6.267398e+01
-2.745181e+01
4.051666e+00
1.347839e+00
-5.894968e+01
-6.269101e+01
-3.124710e+01
2.908997e+00
1.469727e+00
-6.331940e+01
-6.369327e+01
-2.758411e+01
5.950623e+00
4.114594e+00
-5.608435e+01
-6.195584e+01
-3.640402e+01
-1.024295e+01
-2.358041e+01
-1.022397e+02
-1.165740e+02
-9.433905e+01
-7.473093e+01
-8.723886e+01
-1.562994e+02
-1.687592e+02
-1.459812e+02
-1.203213e+02
-1.311025e+02
-2.041117e+02
-2.095848e+02
-1.754330e+02
-1.406548e+02
-1.350855e+02
-1.837270e+02
-1.749138e+02
-1.305803e+02
-8.152081e+01
-7.089041e+01
-1.225348e+02
-1.068410e+02
-5.367102e+01
-3.213409e+00
1.701151e+01
-2.047617e+01
-3.584167e+00
4.718845e+01
9.952145e+01
1.100690e+02
5.599554e+01
6.704947e+01
1.131999e+02
1.565117e+02
1.681886e+02
1.222264e+02
1.282986e+02
1.684059e+02
2.098470e+02
2.085532e+02
1.427278e+02
1.430836e+02
1.777356e+02
2.094933e+02
2.109804e+02
1.548413e+02
1.521616e+02
1.834928e+02
2.164258e+02
2.067562e+02
1.318411e+02
1.233537e+02
1.493566e+02
1.719173e+02
1.664089e+02
1.069231e+02
1.030383e+02
1.386752e+02
1.809762e+02
1.838666e+02
1.213876e+02
1.240897e+02
1.570754e+02
1.819849e+02
1.714433e+02
1.020428e+02
8.476547e+01
1.022270e+02
1.220042e+02
1.018662e+02
1.412836e+01
-9.538666e+00
-1.951324e+00
-2.129944e+00
-3.669583e+01
-1.274036e+02
-1.626377e+02
-1.583120e+02
-1.471221e+02
-1.699620e+02
-2.555501e+02
-2.732187e+02
-2.567846e+02
-2.414854e+02
-2.596111e+02
-3.304912e+02
-3.431893e+02
-3.161714e+02
-2.847664e+02
-2.862818e+02
-3.534917e+02
-3.558091e+02
-3.253524e+02
-3.000768e+02
-3.127310e+02
-3.802247e+02
-3.920750e+02
-3.674145e+02
-3.379483e+02
-3.417462e+02
-4.105302e+02
-4.157046e+02
-3.842545e+02
-3.564718e+02
-3.656309e+02
-4.279851e+02
-4.306141e+02
-3.970598e+02
-3.567052e+02
-3.476135e+02
-4.015075e+02
-3.928427e+02
-3.466400e+02
-3.049503e+02
-3.003278e+02
-3.526896e+02
-3.454821e+02
-3.038109e+02
-2.574835e+02
-2.422747e+02
-2.850621e+02
-2.613937e+02
-1.950663e+02
-1.244721e+02
-8.290585e+01
-9.378619e+01
-3.825427e+01
5.826950e+01
1.641629e+02
2.402049e+02
2.625164e+02
3.515645e+02
4.813437e+02
6.115859e+02
7.086194e+02
7.453492e+02
8.381561e+02
9.600389e+02
1.078073e+03
1.150312e+03
1.151820e+03
1.203084e+03
1.279281e+03
1.336110e+03
1.344428e+03
1.275812e+03
1.250145e+03
1.239184e+03
1.217643e+03
1.143514e+03
9.960857e+02
8.989513e+02
8.303628e+02
7.484879e+02
6.289268e+02
4.448630e+02
3.178910e+02
2.241170e+02
1.370191e+02
1.700983e+01
-1.566544e+02
-2.594154e+02
-3.170056e+02
-3.683702e+02
-4.405021e+02
-5.618222e+02
-6.144967e+02
-6.209886e+02
-6.144614e+02
-6.368650e+02
-7.111506e+02
-7.140535e+02
-6.757715e+02
-6.352023e+02
-6.238841e+02
-6.691222e+02
-6.588806e+02
-6.133941e+02
-5.673784e+02
-5.617823e+02
-6.237603e+02
-6.251433e+02
-5.958531e+02
-5.760516e+02
-5.928261e+02
-6.707518e+02
-6.970340e+02
-6.928341e+02
-6.852141e+02
-7.159413e+02
-8.107086e+02
-8.387031e+02
-8.255311e+02
-8.107892e+02
-8.245204e+02
-8.844927e+02
-8.799738e+02
-8.327500e+02
-7.721924e+02
-7.348810e+02
-7.527832e+02
-6.954312e+02
-5.916803e+02
-4.798833e+02
-3.974410e+02
-3.622189e+02
-2.667462e+02
-1.328156e+02
2.621704e+00
1.050708e+02
1.380705e+02
2.315648e+02
3.551413e+02
4.703199e+02
5.392052e+02
5.443752e+02
5.959539e+02
6.697602e+02
7.340370e+02
7.549947e+02
6.997919e+02
7.000139e+02
7.310515e+02
7.530763e+02
7.333381e+02
6.538000e+02
6.296460e+02
6.338491e+02
6.425643e+02
6.190856e+02
5.329753e+02
5.138792e+02
5.389919e+02
5.626509e+02
5.544218e+02
4.953513e+02
4.976088e+02
5.329807e+02
5.778001e+02
5.899616e+02
5.392644e+02
5.497493e+02
6.003247e+02
6.425943e+02
6.450334e+02
5.859918e+02
5.799969e+02
5.973891e+02
6.128526e+02
5.871476e+02
4.884389e+02
4.442138e+02
4.305058e+02
4.037081e+02
3.331992e+02
1.991220e+02
1.152431e+02
5.778134e+01
2.324341e+00
-9.192584e+01
-2.516437e+02
-3.470210e+02
-4.006198e+02
-4.584387e+02
-5.437928e+02
-6.790475e+02
-7.490710e+02
-7.790910e+02
-7.884700e+02
-8.255238e+02
-9.130542e+02
-9.234998e+02
-8.816824e+02
-8.356068e+02
-8.091694e+02
-8.293667e+02
-7.836357e+02
-6.959861e+02
-5.922263e+02
-5.224342e+02
-5.114655e+02
-4.337059e+02
-3.188322e+02
-2.141305e+02
-1.439930e+02
-1.357476e+02
-7.746802e+01
1.051407e+01
9.785980e+01
1.393252e+02
1.101746e+02
1.388419e+02
1.935088e+02
2.381299e+02
2.439148e+02
1.869752e+02
1.814979e+02
2.105011e+02
2.392719e+02
2.287858e+02
1.551181e+02
1.464811e+02
1.690706e+02
1.897110e+02
1.780708e+02
1.087095e+02
9.331421e+01
1.175717e+02
1.432288e+02
1.311235e+02
5.644412e+01
4.566855e+01
6.502725e+01
8.069641e+01
6.212482e+01
-1.765057e+01
-4.211780e+01
-2.812891e+01
-1.326465e+01
-3.532205e+01
-1.172249e+02
-1.335084e+02
-1.177641e+02
-1.001094e+02
-1.119247e+02
-1.827448e+02
-1.937025e+02
-1.601236e+02
-1.243280e+02
-1.226050e+02
-1.769647e+02
-1.659275e+02
-1.233893e+02
-7.733160e+01
-6.549866e+01
-1.141323e+02
-1.047961e+02
-5.641495e+01
-1.065805e+01
-1.490295e+00
-5.501129e+01
-4.764456e+01
-1.102792e+01
2.665515e+01
2.613434e+01
-3.412762e+01
-3.725226e+01
-2.422333e+00
3.008759e+01
2.907697e+01
-3.423279e+01
-3.436789e+01
7.583618e-01
3.730023e+01
3.865576e+01
-1.516721e+01
-8.948090e+00
3.429544e+01
8.004575e+01
9.435922e+01
4.528452e+01
5.913895e+01
1.090448e+02
1.588590e+02
1.693755e+02
1.251609e+02
1.398419e+02
1.869445e+02
2.332642e+02
2.467270e+02
1.925598e+02
1.990469e+02
2.411640e+02
2.811497e+02
2.804504e+02
2.241414e+02
2.245031e+02
2.565149e+02
2.876783e+02
2.861189e+02
2.170336e+02
2.077996e+02
2.366212e+02
2.624663e+02
2.481667e+02
1.803632e+02
1.727621e+02
1.949872e+02
2.198913e+02
2.153284e+02
1.415712e+02
1.289819e+02
1.575040e+02
1.824271e+02
1.681039e+02
1.024308e+02
9.478403e+01
1.160795e+02
1.407806e+02
1.320238e+02
5.288055e+01
3.470868e+01
5.564322e+01
6.972968e+01
4.566370e+01
-3.289380e+01
-5.509048e+01
-4.941440e+01
-3.890033e+01
-6.464206e+01
-1.572643e+02
-1.873681e+02
-1.779302e+02
-1.725552e+02
-2.008479e+02
-2.815781e+02
-3.024771e+02
-2.896686e+02
-2.695500e+02
-2.829746e+02
-3.596297e+02
-3.693513e+02
-3.381548e+02
-3.099791e+02
-3.121142e+02
-3.678348e+02
-3.656306e+02
-3.301182e+02
-2.874252e+02
-2.827707e+02
-3.418345e+02
-3.374532e+02
-2.966931e+02
-2.622782e+02
-2.608324e+02
-3.151946e+02
-3.132365e+02
-2.769759e+02
-2.338881e+02
-2.288229e+02
-2.874102e+02
-2.795308e+02
-2.339689e+02
-1.916873e+02
-1.789191e+02
-2.199273e+02
-2.051206e+02
-1.528576e+02
-9.340973e+01
-7.186896e+01
-1.109741e+02
-8.259906e+01
-1.970859e+01
3.883127e+01
6.636179e+01
3.488303e+01
5.661465e+01
1.154137e+02
1.766505e+02
1.974115e+02
1.557675e+02
1.779904e+02
2.312778e+02
2.804735e+02
2.962545e+02
2.512654e+02
2.601955e+02
3.057125e+02
3.525019e+02
3.604466e+02
3.048361e+02
3.139759e+02
3.539660e+02
3.898499e+02
3.911041e+02
3.318481e+02
3.253292e+02
3.545628e+02
3.838576e+02
3.724343e+02
2.984688e+02
2.862843e+02
3.051628e+02
3.188794e+02
2.992322e+02
2.178955e+02
1.935848e+02
2.059405e+02
2.206582e+02
1.976050e+02
1.151366e+02
9.558917e+01
1.119887e+02
1.264279e+02
1.102996e+02
3.475134e+01
1.903152e+01
3.917407e+01
6.255627e+01
4.827991e+01
-2.443686e+01
-3.727963e+01
-1.394391e+01
5.445557e+00
-8.277100e+00
-8.346988e+01
-9.839014e+01
-7.936667e+01
-5.668069e+01
-7.236865e+01
-1.491328e+02
-1.655221e+02
-1.455295e+02
-1.279895e+02
-1.414371e+02
-2.119232e+02
-2.210420e+02
-1.938000e+02
-1.608026e+02
-1.639279e+02
-2.261946e+02
-2.271589e+02
-1.886615e+02
-1.538799e+02
-1.509905e+02
-2.064663e+02
-2.014465e+02
-1.643729e+02
-1.225885e+02
-1.180360e+02
-1.755877e+02
-1.737003e+02
-1.342944e+02
-1.004278e+02
-1.004221e+02
-1.603014e+02
-1.596152e+02
-1.263081e+02
-8.813550e+01
-8.480847e+01
-1.422816e+02
-1.370843e+02
-9.205862e+01
-4.952533e+01
-4.064572e+01
-8.891083e+01
-7.750983e+01
-3.295142e+01
1.532315e+01
2.823581e+01
-2.200381e+01
-1.003845e+01
3.804602e+01
8.135797e+01
8.736624e+01
3.401627e+01
3.470868e+01
6.744562e+01
1.006017e+02
9.541379e+01
2.405582e+01
1.600150e+01
4.239453e+01
6.414462e+01
5.015457e+01
-2.093744e+01
-3.624396e+01
-1.828885e+01
2.668488e+00
-1.035944e+01
-8.522836e+01
-9.441522e+01
-6.410403e+01
-3.527457e+01
-4.029266e+01
-1.012300e+02
-1.027635e+02
-7.116730e+01
-3.508316e+01
-3.219571e+01
-9.145245e+01
-8.746732e+01
-4.431189e+01
-4.079926e+00
1.232117e+00
-4.989178e+01
-4.357553e+01
-4.471985e+00
3.707932e+01
4.231982e+01
-1.666275e+01
-1.340921e+01
2.699850e+01
6.353732e+01
6.491238e+01
1.000922e+01
1.216525e+01
4.630756e+01
8.264670e+01
8.353854e+01
1.901392e+01
1.653391e+01
5.320685e+01
8.670880e+01
8.610629e+01
3.194189e+01
3.706363e+01
7.405658e+01
1.174826e+02
1.254778e+02
6.930008e+01
7.639877e+01
1.238008e+02
1.665398e+02
1.761362e+02
1.306090e+02
1.443906e+02
1.874418e+02
2.359723e+02
2.461235e+02
1.899524e+02
1.928715e+02
2.340693e+02
2.661462e+02
2.619191e+02
1.988537e+02
1.918028e+02
2.133603e+02
2.389218e+02
2.245780e+02
1.435304e+02
1.232066e+02
1.396903e+02
1.489686e+02
1.246867e+02
4.495093e+01
2.218640e+01
3.247961e+01
4.919684e+01
3.066156e+01
-5.290405e+01
-7.000510e+01
-4.942151e+01
-3.335794e+01
-4.986096e+01
-1.212831e+02
-1.358019e+02
-1.167839e+02
-9.175284e+01
-1.026805e+02
-1.774037e+02
-1.876013e+02
-1.591217e+02
-1.361490e+02
-1.472326e+02
-2.143830e+02
-2.242702e+02
-1.998429e+02
-1.680459e+02
-1.726251e+02
-2.384033e+02
-2.390343e+02
-2.021936e+02
-1.702018e+02
-1.691862e+02
-2.264067e+02
-2.260229e+02
-1.894189e+02
-1.479444e+02
-1.436173e+02
-2.001180e+02
-1.930235e+02
-1.522031e+02
-1.146216e+02
-1.129183e+02
-1.700624e+02
-1.726653e+02
-1.395922e+02
-1.046701e+02
-1.048639e+02
-1.681155e+02
-1.650130e+02
-1.281741e+02
-9.199805e+01
-8.880884e+01
-1.410479e+02
-1.359418e+02
-9.168738e+01
-4.377469e+01
-2.835059e+01
-7.417163e+01
-5.282968e+01
5.900146e+00
6.504205e+01
8.993777e+01
5.964655e+01
8.552469e+01
1.466859e+02
2.094722e+02
2.349565e+02
1.951772e+02
2.174978e+02
2.732422e+02
3.231575e+02
3.359485e+02
2.880539e+02
2.921910e+02
3.271306e+02
3.613927e+02
3.547733e+02
2.794239e+02
2.656269e+02
2.827051e+02
2.936641e+02
2.688077e+02
1.861733e+02
1.550989e+02
1.588663e+02
1.638540e+02
1.311883e+02
3.209103e+01
1.022644e+00
5.431305e+00
8.211243e+00
-2.182980e+01
-1.039869e+02
-1.304020e+02
-1.192307e+02
-1.007901e+02
-1.153123e+02
-1.945547e+02
-2.019998e+02
-1.704862e+02
-1.410027e+02
-1.404142e+02
-1.897895e+02
-1.836888e+02
-1.391659e+02
-8.604596e+01
-7.049237e+01
-1.205074e+02
-1.036723e+02
-5.173785e+01
-6.068848e+00
5.802307e+00
-3.840912e+01
-3.086002e+01
9.163391e+00
5.330609e+01
5.625424e+01
-9.574066e+00
-1.064514e+01
2.036719e+01
4.261176e+01
3.137854e+01
-3.706131e+01
-5.312708e+01
-3.158521e+01
-4.066132e+00
-1.447534e+01
-8.758173e+01
-9.185049e+01
-6.078293e+01
-3.168671e+01
-3.200180e+01
-8.599432e+01
-8.088937e+01
-3.496231e+01
1.732806e+01
3.452191e+01
-9.196869e+00
1.261963e+01
7.006003e+01
1.238695e+02
1.432022e+02
1.041126e+02
1.199009e+02
1.686047e+02
2.182977e+02
2.279241e+02
1.717047e+02
1.730413e+02
2.052830e+02
2.291049e+02
2.161304e+02
1.391365e+02
1.180660e+02
1.296418e+02
1.415724e+02
1.127424e+02
2.251172e+01
-8.481659e+00
-4.013184e+00
-2.029480e+00
-3.217279e+01
-1.241488e+02
-1.524032e+02
-1.448506e+02
-1.331202e+02
-1.552541e+02
-2.329502e+02
-2.496387e+02
-2.260717e+02
-2.015320e+02
-2.085149e+02
-2.762696e+02
-2.798207e+02
-2.486678e+02
-2.143181e+02
-2.171373e+02
-2.769077e+02
-2.789926e+02
-2.443717e+02
-2.122178e+02
-2.154232e+02
-2.828881e+02
-2.890688e+02
-2.649426e+02
-2.402859e+02
-2.543486e+02
-3.278724e+02
-3.461891e+02
-3.250540e+02
-3.087046e+02
-3.266790e+02
-4.072109e+02
-4.241631e+02
-4.097837e+02
-3.875505e+02
-3.998276e+02
-4.661966e+02
-4.680013e+02
-4.229549e+02
-3.762225e+02
-3.546424e+02
-3.860228e+02
-3.458671e+02
-2.650621e+02
-1.685272e+02
-9.941177e+01
-7.954608e+01
9.606445e+00
1.492373e+02
2.907834e+02
4.057937e+02
4.658234e+02
5.897115e+02
7.440428e+02
9.031271e+02
1.022585e+03
1.073625e+03
1.177725e+03
1.311893e+03
1.425924e+03
1.488988e+03
1.478139e+03
1.504922e+03
1.542333e+03
1.563545e+03
1.527616e+03
1.404810e+03
1.325880e+03
1.267052e+03
1.184144e+03
1.051056e+03
8.486842e+02
6.922879e+02
5.595633e+02
4.283416e+02
2.617108e+02
3.221674e+01
-1.271939e+02
-2.392997e+02
-3.458618e+02
-4.743838e+02
-6.425693e+02
-7.376647e+02
-7.826690e+02
-8.051451e+02
-8.451417e+02
-9.335388e+02
-9.417234e+02
-8.996215e+02
-8.495606e+02
-8.252601e+02
-8.484445e+02
-8.112120e+02
-7.362219e+02
-6.592010e+02
-6.197813e+02
-6.521264e+02
-6.267589e+02
-5.757799e+02
-5.354029e+02
-5.425836e+02
-6.144336e+02
-6.402692e+02
-6.380620e+02
-6.423861e+02
-6.870260e+02
-8.016881e+02
-8.533658e+02
-8.724435e+02
-8.887173e+02
-9.370745e+02
-1.033482e+03
-1.064494e+03
-1.044003e+03
-1.009988e+03
-9.953016e+02
-1.028461e+03
-9.807086e+02
-8.847860e+02
-7.726730e+02
-6.802196e+02
-6.315629e+02
-5.125206e+02
-3.435289e+02
-1.668229e+02
-2.093866e+01
6.664453e+01
2.157708e+02
3.928575e+02
5.629448e+02
6.901461e+02
7.464320e+02
8.481755e+02
9.733413e+02
1.082140e+03
1.136221e+03
1.110727e+03
1.130245e+03
1.164650e+03
1.182191e+03
1.151625e+03
1.049439e+03
9.946730e+02
9.687143e+02
9.376059e+02
8.670095e+02
7.336806e+02
6.648842e+02
6.351777e+02
6.099521e+02
5.592878e+02
4.590980e+02
4.276665e+02
4.415753e+02
4.685469e+02
4.682816e+02
4.157843e+02
4.323238e+02
4.904760e+02
5.480293e+02
5.748120e+02
5.402044e+02
5.602876e+02
6.074757e+02
6.507517e+02
6.438599e+02
5.633789e+02
5.316348e+02
5.226363e+02
4.921725e+02
4.160513e+02
2.667422e+02
1.623182e+02
7.672250e+01
-1.092856e+01
-1.465001e+02
-3.495170e+02
-4.929787e+02
-5.963341e+02
-7.020082e+02
-8.332361e+02
-1.011693e+03
-1.120645e+03
-1.183715e+03
-1.223217e+03
-1.281957e+03
-1.384786e+03
-1.403177e+03
-1.360926e+03
-1.306247e+03
-1.264457e+03
-1.260158e+03
-1.182691e+03
-1.059676e+03
-9.157228e+02
-8.001313e+02
-7.409507e+02
-6.138984e+02
-4.451348e+02
-2.858060e+02
-1.625869e+02
-1.016419e+02
9.336243e+00
1.413184e+02
2.705999e+02
3.493249e+02
3.516203e+02
4.049020e+02
4.845023e+02
5.442879e+02
5.610934e+02
5.095576e+02
5.055297e+02
5.258017e+02
5.471216e+02
5.254675e+02
4.379654e+02
4.119987e+02
4.247286e+02
4.322201e+02
4.088879e+02
3.314985e+02
3.143577e+02
3.324381e+02
3.580575e+02
3.503284e+02
2.809714e+02
2.753355e+02
3.087114e+02
3.378586e+02
3.314675e+02
2.659197e+02
2.560004e+02
2.754048e+02
2.929530e+02
2.706187e+02
1.814530e+02
1.499078e+02
1.502738e+02
1.449100e+02
1.024067e+02
-1.278625e+00
-4.779199e+01
-6.083868e+01
-6.978745e+01
-1.133691e+02
-2.155553e+02
-2.529327e+02
-2.490630e+02
-2.420519e+02
-2.640185e+02
-3.385703e+02
-3.480611e+02
-3.178414e+02
-2.822010e+02
-2.762633e+02
-3.291766e+02
-3.177206e+02
-2.688845e+02
-2.185624e+02
-2.043901e+02
-2.486842e+02
-2.372362e+02
-1.909941e+02
-1.475639e+02
-1.398138e+02
-1.978707e+02
-1.953952e+02
-1.619840e+02
-1.305854e+02
-1.372855e+02
-2.017243e+02
-2.091115e+02
-1.795342e+02
-1.480504e+02
-1.476139e+02
-2.102139e+02
-2.054525e+02
-1.640483e+02
-1.187188e+02
-1.060759e+02
-1.454434e+02
-1.263962e+02
-6.579337e+01
-1.266754e+00
3.118979e+01
1.265137e+00
3.832187e+01
1.096018e+02
1.789809e+02
2.130343e+02
1.889345e+02
2.165081e+02
2.783604e+02
3.393299e+02
3.611681e+02
3.137100e+02
3.295237e+02
3.737948e+02
4.117525e+02
4.108028e+02
3.506830e+02
3.399146e+02
3.627167e+02
3.836591e+02
3.658528e+02
2.791902e+02
2.573632e+02
2.677011e+02
2.752751e+02
2.497802e+02
1.685934e+02
1.427357e+02
1.548513e+02
1.718454e+02
1.524387e+02
7.162668e+01
5.804199e+01
8.270547e+01
1.068245e+02
1.026672e+02
4.395474e+01
4.419547e+01
8.042587e+01
1.221571e+02
1.253443e+02
6.477557e+01
6.704395e+01
1.064127e+02
1.409070e+02
1.431911e+02
8.454205e+01
8.103015e+01
1.073964e+02
1.334972e+02
1.161440e+02
3.326508e+01
8.599823e+00
1.740686e+01
1.995197e+01
-1.148495e+01
-1.051001e+02
-1.401400e+02
-1.434530e+02
-1.434554e+02
-1.812645e+02
-2.799882e+02
-3.167556e+02
-3.132898e+02
-3.085946e+02
-3.331528e+02
-4.135562e+02
-4.295703e+02
-4.076176e+02
-3.789202e+02
-3.838442e+02
-4.464567e+02
-4.469068e+02
-4.071683e+02
-3.671570e+02
-3.587572e+02
-4.091822e+02
-3.966814e+02
-3.512736e+02
-3.025931e+02
-2.910006e+02
-3.405436e+02
-3.313692e+02
-2.843422e+02
-2.406938e+02
-2.330389e+02
-2.858474e+02
-2.779353e+02
-2.376721e+02
-1.944363e+02
-1.857443e+02
-2.393302e+02
-2.293958e+02
-1.808858e+02
-1.327040e+02
-1.197711e+02
-1.620476e+02
-1.457462e+02
-9.283896e+01
-3.602258e+01
-1.145663e+01
-4.803711e+01
-1.898419e+01
4.688928e+01
1.103403e+02
1.369184e+02
1.061739e+02
1.321543e+02
1.924645e+02
2.556416e+02
2.842813e+02
2.485491e+02
2.750346e+02
3.367129e+02
3.935409e+02
4.106302e+02
3.688415e+02
3.817111e+02
4.261751e+02
4.704817e+02
4.785140e+02
4.202567e+02
4.223147e+02
4.578500e+02
4.866422e+02
4.744066e+02
4.016734e+02
3.844540e+02
3.963961e+02
4.092345e+02
3.868667e+02
2.985508e+02
2.709653e+02
2.811904e+02
2.873984e+02
2.560689e+02
1.692315e+02
1.404958e+02
1.458930e+02
1.567418e+02
1.361936e+02
5.335947e+01
3.675406e+01
5.959262e+01
8.166122e+01
6.968314e+01
4.202087e+00
-1.928528e+00
2.786050e+01
6.217889e+01
6.286389e+01
-9.813232e-01
-2.848785e+00
3.029388e+01
5.851294e+01
4.823248e+01
-2.154953e+01
-3.347028e+01
-1.451218e+01
5.749878e+00
-1.153973e+01
-9.519855e+01
-1.217563e+02
-1.128824e+02
-1.087338e+02
-1.405350e+02
-2.286594e+02
-2.562263e+02
-2.494409e+02
-2.386578e+02
-2.619795e+02
-3.471183e+02
-3.676328e+02
-3.494204e+02
-3.313546e+02
-3.439869e+02
-4.084121e+02
-4.131703e+02
-3.801312e+02
-3.390303e+02
-3.327195e+02
-3.890825e+02
-3.787304e+02
-3.304617e+02
-2.863801e+02
-2.726687e+02
-3.128889e+02
-2.972536e+02
-2.451484e+02
-1.868737e+02
-1.674903e+02
-2.129319e+02
-1.908975e+02
-1.353396e+02
-8.614261e+01
-6.884363e+01
-1.065730e+02
-9.110385e+01
-3.941528e+01
1.787317e+01
3.695032e+01
-9.270905e+00
9.547821e+00
6.267743e+01
1.080036e+02
1.204052e+02
7.536343e+01
8.362534e+01
1.248780e+02
1.709926e+02
1.769644e+02
1.178812e+02
1.230285e+02
1.625649e+02
1.937518e+02
1.920628e+02
1.323428e+02
1.248102e+02
1.506165e+02
1.822036e+02
1.747050e+02
1.030144e+02
9.937207e+01
1.320586e+02
1.589691e+02
1.549348e+02
9.332040e+01
8.573996e+01
1.138717e+02
1.495292e+02
1.486405e+02
8.623389e+01
8.968506e+01
1.301334e+02
1.657884e+02
1.681109e+02
1.120161e+02
1.128689e+02
1.476794e+02
1.859833e+02
1.869142e+02
1.254349e+02
1.250059e+02
1.588020e+02
1.867683e+02
1.796619e+02
1.108744e+02
9.822293e+01
1.182900e+02
1.408130e+02
1.247348e+02
4.610825e+01
2.840216e+01
4.567172e+01
5.905038e+01
3.909821e+01
-4.029327e+01
-5.965024e+01
-4.295383e+01
-2.173505e+01
-3.664908e+01
-1.106279e+02
-1.211804e+02
-9.508276e+01
-7.036182e+01
-7.508594e+01
-1.386940e+02
-1.414015e+02
-1.066449e+02
-6.664886e+01
-6.447778e+01
-1.211217e+02
-1.162737e+02
-7.697723e+01
-4.115231e+01
-3.737961e+01
-9.494009e+01
-9.461099e+01
-5.952039e+01
-2.326193e+01
-2.668466e+01
-9.097586e+01
-9.574344e+01
-6.780820e+01
-4.423032e+01
-5.506244e+01
-1.268520e+02
-1.397691e+02
-1.170524e+02
-9.083194e+01
-1.020193e+02
-1.732884e+02
-1.811429e+02
-1.525284e+02
-1.260861e+02
-1.291996e+02
-1.888722e+02
-1.886939e+02
-1.506962e+02
-1.053765e+02
-9.553430e+01
-1.452308e+02
-1.291068e+02
-7.411786e+01
-2.253821e+01
-2.504486e+00
-4.064951e+01
-2.036511e+01
3.173428e+01
8.731793e+01
1.053619e+02
5.980566e+01
7.404608e+01
1.239086e+02
1.664539e+02
1.713169e+02
1.143985e+02
1.120973e+02
1.382986e+02
1.664877e+02
1.560313e+02
8.111618e+01
6.819275e+01
9.439005e+01
1.146522e+02
1.009730e+02
3.107077e+01
1.870740e+01
3.845190e+01
6.607596e+01
6.054422e+01
-6.879211e+00
-5.774628e+00
3.675140e+01
7.677573e+01
8.382733e+01
3.793127e+01
4.833423e+01
9.186459e+01
1.418293e+02
1.564019e+02
1.047159e+02
1.171177e+02
1.667112e+02
2.073059e+02
2.117042e+02
1.585057e+02
1.574030e+02
1.830061e+02
2.120872e+02
1.995673e+02
1.187164e+02
9.989700e+01
1.171526e+02
1.256651e+02
9.794330e+01
1.306671e+01
-1.758286e+01
-1.700406e+01
-1.077258e+01
-4.061026e+01
-1.343605e+02
-1.606710e+02
-1.472577e+02
-1.372165e+02
-1.566451e+02
-2.279220e+02
-2.413530e+02
-2.173521e+02
-1.832083e+02
-1.829169e+02
-2.442573e+02
-2.359384e+02
-1.880210e+02
-1.425015e+02
-1.278636e+02
-1.650930e+02
-1.471262e+02
-9.507410e+01
-3.856186e+01
-1.938416e+01
-6.752423e+01
-5.283032e+01
-4.030243e+00
3.765567e+01
4.010254e+01
-1.696609e+01
-2.099921e+01
3.672119e+00
2.685794e+01
1.269373e+01
-6.953833e+01
-9.248175e+01
-7.994135e+01
-7.079004e+01
-9.930786e+01
-1.833641e+02
-2.067441e+02
-1.973337e+02
-1.836903e+02
-1.995574e+02
-2.758558e+02
-2.873970e+02
-2.558760e+02
-2.214361e+02
-2.204004e+02
-2.722891e+02
-2.625378e+02
-2.175801e+02
-1.707444e+02
-1.552709e+02
-2.040485e+02
-1.919278e+02
-1.448524e+02
-9.964145e+01
-9.399966e+01
-1.470016e+02
-1.444955e+02
-1.102639e+02
-7.681784e+01
-7.807367e+01
-1.429824e+02
-1.462931e+02
-1.104518e+02
-7.154733e+01
-6.579916e+01
-1.116133e+02
-9.037064e+01
-2.826166e+01
4.151294e+01
8.783475e+01
7.978235e+01
1.405462e+02
2.463511e+02
3.593796e+02
4.409160e+02
4.687690e+02
5.580722e+02
6.829581e+02
8.067966e+02
8.926111e+02
9.093210e+02
9.780854e+02
1.070293e+03
1.148883e+03
1.177504e+03
1.132541e+03
1.127697e+03
1.141763e+03
1.139473e+03
1.081778e+03
9.428464e+02
8.510547e+02
7.777418e+02
6.891215e+02
5.576849e+02
3.604876e+02
2.130391e+02
1.007684e+02
-9.866852e+00
-1.566403e+02
-3.612584e+02
-4.930335e+02
-5.822940e+02
-6.601260e+02
-7.547016e+02
-8.921935e+02
-9.556020e+02
-9.639816e+02
-9.526074e+02
-9.627991e+02
-1.018393e+03
-9.959421e+02
-9.252565e+02
-8.455159e+02
-7.897381e+02
-7.862456e+02
-7.208757e+02
-6.186462e+02
-5.146336e+02
-4.503264e+02
-4.549911e+02
-4.053504e+02
-3.292952e+02
-2.662864e+02
-2.499050e+02
-3.017258e+02
-3.087165e+02
-2.910249e+02
-2.799469e+02
-3.135256e+02
-4.172297e+02
-4.600669e+02
-4.693580e+02
-4.816517e+02
-5.242841e+02
-6.177229e+02
-6.459607e+02
-6.283421e+02
-5.952581e+02
-5.844462e+02
-6.235938e+02
-5.830433e+02
-4.914054e+02
-3.881394e+02
-3.067809e+02
-2.700711e+02
-1.675272e+02
-2.294843e+01
1.286024e+02
2.473073e+02
3.016342e+02
4.154880e+02
5.593701e+02
6.925016e+02
7.766843e+02
7.904666e+02
8.469623e+02
9.229744e+02
9.853440e+02
9.990649e+02
9.334348e+02
9.162176e+02
9.219522e+02
9.115235e+02
8.532600e+02
7.323179e+02
6.621868e+02
6.232257e+02
5.883847e+02
5.221178e+02
3.922961e+02
3.339527e+02
3.176637e+02
3.046628e+02
2.645187e+02
1.804169e+02
1.609532e+02
1.881308e+02
2.280046e+02
2.404897e+02
1.934088e+02
2.189050e+02
2.808932e+02
3.416323e+02
3.693310e+02
3.392168e+02
3.587563e+02
4.102849e+02
4.570251e+02
4.564432e+02
3.805948e+02
3.588326e+02
3.582770e+02
3.418484e+02
2.789098e+02
1.486430e+02
6.061533e+01
-7.684937e-01
-6.790894e+01
-1.784196e+02
-3.589298e+02
-4.746730e+02
-5.559546e+02
-6.375654e+02
-7.454165e+02
-8.996883e+02
-9.873583e+02
-1.025452e+03
-1.043007e+03
-1.081100e+03
-1.165475e+03
-1.164663e+03
-1.108569e+03
-1.039087e+03
-9.829138e+02
-9.642918e+02
-8.760594e+02
-7.413404e+02
-5.899542e+02
-4.719352e+02
-4.154693e+02
-2.924226e+02
-1.346935e+02
1.236157e+01
1.223413e+02
1.656387e+02
2.519664e+02
3.589326e+02
4.562480e+02
4.977796e+02
4.615643e+02
4.760832e+02
5.135913e+02
5.342882e+02
5.136678e+02
4.257138e+02
3.868226e+02
3.762611e+02
3.675870e+02
3.198527e+02
2.110465e+02
1.686039e+02
1.678966e+02
1.657898e+02
1.359581e+02
5.291916e+01
3.331693e+01
5.078769e+01
8.001956e+01
7.669370e+01
1.388953e+01
1.597263e+01
5.701248e+01
9.113809e+01
9.158826e+01
3.128299e+01
2.660696e+01
5.158044e+01
7.977719e+01
6.629858e+01
-9.817596e+00
-2.710223e+01
-8.212402e+00
2.933136e+00
-1.889758e+01
-1.020707e+02
-1.267125e+02
-1.171371e+02
-9.935892e+01
-1.165378e+02
-1.905468e+02
-1.979704e+02
-1.647361e+02
-1.335360e+02
-1.320211e+02
-1.883219e+02
-1.841292e+02
-1.425663e+02
-9.417725e+01
-7.988266e+01
-1.237520e+02
-1.033828e+02
-4.670001e+01
6.066040e+00
2.269147e+01
-2.230295e+01
-1.016656e+01
3.456705e+01
8.158099e+01
9.180563e+01
4.038071e+01
4.782086e+01
9.111667e+01
1.292864e+02
1.298410e+02
6.881052e+01
6.661819e+01
9.620029e+01
1.289130e+02
1.250137e+02
6.074152e+01
5.656537e+01
9.157361e+01
1.225511e+02
1.194092e+02
5.691870e+01
5.591464e+01
8.683868e+01
1.213303e+02
1.204320e+02
6.053867e+01
6.210077e+01
1.029796e+02
1.430307e+02
1.478570e+02
9.371692e+01
9.985315e+01
1.380291e+02
1.773560e+02
1.821125e+02
1.236180e+02
1.241488e+02
1.607077e+02
1.929694e+02
1.859116e+02
1.193528e+02
1.118933e+02
1.349505e+02
1.571929e+02
1.448173e+02
6.821255e+01
4.872464e+01
6.631577e+01
8.300528e+01
6.154578e+01
-1.682333e+01
-3.179343e+01
-1.352109e+01
6.218628e+00
-6.056366e+00
-7.901447e+01
-9.235892e+01
-6.508548e+01
-3.855121e+01
-4.664026e+01
-1.126541e+02
-1.158825e+02
-8.689789e+01
-5.530679e+01
-5.895523e+01
-1.254140e+02
-1.323951e+02
-1.030172e+02
-7.838269e+01
-9.081473e+01
-1.611028e+02
-1.739069e+02
-1.533530e+02
-1.312885e+02
-1.442879e+02
-2.209722e+02
-2.349093e+02
-2.129782e+02
-1.926253e+02
-2.068041e+02
-2.756207e+02
-2.842689e+02
-2.552575e+02
-2.213654e+02
-2.194280e+02
-2.799042e+02
-2.743509e+02
-2.309938e+02
-1.902917e+02
-1.835619e+02
-2.305030e+02
-2.188336e+02
-1.718478e+02
-1.205709e+02
-1.036421e+02
-1.507003e+02
-1.344557e+02
-8.099786e+01
-3.272568e+01
-1.962650e+01
-6.386322e+01
-5.170969e+01
-8.752869e+00
3.951492e+01
5.023117e+01
-3.091064e+00
6.894684e+00
5.504120e+01
9.536597e+01
1.025050e+02
5.260318e+01
5.907553e+01
9.671918e+01
1.417384e+02
1.494357e+02
9.406039e+01
1.030615e+02
1.504951e+02
1.909865e+02
1.984408e+02
1.515506e+02
1.620829e+02
2.054549e+02
2.552043e+02
2.693347e+02
2.171117e+02
2.279453e+02
2.757258e+02
3.174530e+02
3.235167e+02
2.729338e+02
2.780842e+02
3.129109e+02
3.496773e+02
3.474644e+02
2.773751e+02
2.659071e+02
2.892689e+02
3.031730e+02
2.793651e+02
1.965264e+02
1.686567e+02
1.703145e+02
1.740994e+02
1.400260e+02
3.945547e+01
9.800720e-01
-3.302917e-01
-5.340454e+00
-4.254620e+01
-1.338351e+02
-1.647529e+02
-1.592432e+02
-1.458482e+02
-1.653844e+02
-2.456968e+02
-2.594296e+02
-2.313612e+02
-2.045175e+02
-2.061672e+02
-2.598307e+02
-2.517878e+02
-2.075520e+02
-1.562403e+02
-1.400630e+02
-1.880540e+02
-1.728728e+02
-1.225563e+02
-7.577420e+01
-6.427399e+01
-1.093770e+02
-9.963263e+01
-5.708823e+01
-1.419012e+01
-1.080099e+01
-7.607544e+01
-8.049652e+01
-5.181900e+01
-2.796155e+01
-3.914816e+01
-1.079513e+02
-1.203933e+02
-9.974545e+01
-7.602094e+01
-8.831491e+01
-1.616020e+02
-1.703678e+02
-1.393694e+02
-1.082577e+02
-1.077155e+02
-1.619502e+02
-1.545155e+02
-1.112377e+02
-6.065466e+01
-4.381747e+01
-8.783414e+01
-6.726675e+01
-6.831177e+00
5.033310e+01
7.475830e+01
4.080911e+01
6.429202e+01
1.168892e+02
1.722394e+02
1.860612e+02
1.343698e+02
1.394834e+02
1.796870e+02
2.110027e+02
2.046977e+02
1.357242e+02
1.213578e+02
1.358077e+02
1.514962e+02
1.275370e+02
4.003351e+01
1.325015e+01
2.369931e+01
3.146481e+01
7.253906e+00
-7.431921e+01
-9.551993e+01
-8.047284e+01
-5.922348e+01
-7.189200e+01
-1.433416e+02
-1.481796e+02
-1.131590e+02
-7.901834e+01
-7.542407e+01
-1.275335e+02
-1.219542e+02
-8.063809e+01
-3.524240e+01
-2.579736e+01
-7.935938e+01
-6.956802e+01
-2.426263e+01
1.634134e+01
2.185870e+01
-3.129102e+01
-2.936847e+01
6.229126e+00
4.510080e+01
4.605649e+01
-1.873074e+01
-1.783746e+01
1.686893e+01
4.756866e+01
4.556750e+01
-1.116382e+01
-1.399091e+01
2.123148e+01
6.091949e+01
6.416833e+01
3.115662e+00
9.385162e+00
4.937201e+01
8.789789e+01
9.357715e+01
4.309134e+01
4.639316e+01
8.915353e+01
1.329421e+02
1.404320e+02
8.283319e+01
9.258484e+01
1.337580e+02
1.732610e+02
1.772105e+02
1.246259e+02
1.248501e+02
1.619366e+02
2.001555e+02
2.003781e+02
1.357455e+02
1.357343e+02
1.676740e+02
1.964554e+02
1.897598e+02
1.242358e+02
1.128676e+02
1.373614e+02
1.615974e+02
1.474673e+02
6.913385e+01
5.326389e+01
6.904529e+01
8.367841e+01
6.341461e+01
-1.678662e+01
-3.940195e+01
-2.546173e+01
-1.157477e+01
-3.485242e+01
-1.192808e+02
-1.413973e+02
-1.291222e+02
-1.176264e+02
-1.383270e+02
-2.177725e+02
-2.380122e+02
-2.204849e+02
-2.004997e+02
-2.162311e+02
-2.915876e+02
-3.038438e+02
-2.808189e+02
-2.573208e+02
-2.659482e+02
-3.337368e+02
-3.389497e+02
-3.064003e+02
-2.696577e+02
-2.676274e+02
-3.222255e+02
-3.138101e+02
-2.671201e+02
-2.213217e+02
-2.048101e+02
-2.471215e+02
-2.274015e+02
-1.710780e+02
-1.085720e+02
-8.335822e+01
-1.173569e+02
-9.120880e+01
-2.791431e+01
3.055081e+01
5.626495e+01
2.008887e+01
4.238281e+01
9.620505e+01
1.510465e+02
1.648582e+02
1.146275e+02
1.229443e+02
1.641393e+02
1.983348e+02
1.972975e+02
1.345123e+02
1.280262e+02
1.526981e+02
1.815116e+02
1.721795e+02
1.008809e+02
9.320306e+01
1.232366e+02
1.483441e+02
1.427167e+02
8.122061e+01
7.819482e+01
1.105777e+02
1.529215e+02
1.600786e+02
1.068892e+02
1.196920e+02
1.726568e+02
2.217096e+02
2.383542e+02
1.969355e+02
2.132341e+02
2.608895e+02
3.118055e+02
3.226972e+02
2.695790e+02
2.749458e+02
3.149648e+02
3.469633e+02
3.412410e+02
2.717165e+02
2.548440e+02
2.657819e+02
2.751208e+02
2.429118e+02
1.443098e+02
1.067320e+02
1.035572e+02
9.782703e+01
5.624179e+01
-4.149725e+01
-8.068097e+01
-8.449380e+01
-8.404678e+01
-1.145865e+02
-2.037868e+02
-2.243832e+02
-2.032179e+02
-1.779317e+02
-1.832256e+02
-2.410601e+02
-2.382848e+02
-1.978106e+02
-1.521119e+02
-1.392462e+02
-1.881348e+02
-1.736315e+02
-1.224711e+02
-7.467441e+01
-6.365033e+01
-1.129140e+02
-1.069809e+02
-7.122809e+01
-3.773148e+01
-4.275958e+01
-1.151769e+02
-1.287565e+02
-1.084040e+02
-9.077191e+01
-1.104651e+02
-1.874697e+02
-2.055729e+02
-1.896506e+02
-1.729633e+02
-1.883651e+02
-2.657237e+02
-2.787462e+02
-2.530949e+02
-2.244529e+02
-2.280731e+02
-2.854218e+02
-2.827801e+02
-2.434505e+02
-2.003688e+02
-1.908031e+02
-2.456298e+02
-2.355526e+02
-1.896382e+02
-1.464982e+02
-1.389120e+02
-1.860951e+02
-1.798653e+02
-1.392777e+02
-9.681537e+01
-9.165479e+01
-1.538602e+02
-1.531611e+02
-1.174091e+02
-8.755438e+01
-9.306174e+01
-1.564187e+02
-1.639311e+02
-1.399854e+02
-1.106188e+02
-1.200900e+02
-1.941338e+02
-2.054055e+02
-1.797442e+02
-1.587724e+02
-1.691519e+02
-2.338025e+02
-2.393972e+02
-2.078177e+02
-1.664926e+02
-1.584236e+02
-2.084608e+02
-1.873054e+02
-1.227306e+02
-5.575156e+01
-1.280118e+01
-1.733649e+01
4.135687e+01
1.447889e+02
2.616009e+02
3.474723e+02
3.745579e+02
4.721562e+02
6.071115e+02
7.374838e+02
8.335235e+02
8.691673e+02
9.536523e+02
1.065865e+03
1.173242e+03
1.229717e+03
1.207414e+03
1.234791e+03
1.280934e+03
1.302849e+03
1.273298e+03
1.170063e+03
1.105099e+03
1.058938e+03
1.003528e+03
8.988618e+02
7.194015e+02
5.958839e+02
5.023820e+02
4.011641e+02
2.657708e+02
7.558743e+01
-5.167850e+01
-1.380532e+02
-2.109948e+02
-3.083705e+02
-4.567648e+02
-5.304331e+02
-5.543360e+02
-5.696167e+02
-6.075305e+02
-6.893672e+02
-7.031465e+02
-6.716208e+02
-6.282853e+02
-6.143660e+02
-6.616533e+02
-6.417485e+02
-5.870555e+02
-5.366870e+02
-5.244594e+02
-5.714127e+02
-5.672371e+02
-5.322901e+02
-5.003385e+02
-5.094210e+02
-5.904035e+02
-6.146617e+02
-6.090783e+02
-6.108848e+02
-6.531868e+02
-7.520687e+02
-7.933118e+02
-7.990780e+02
-7.995281e+02
-8.304715e+02
-9.212375e+02
-9.428532e+02
-9.189911e+02
-8.904383e+02
-8.875259e+02
-9.289888e+02
-9.019873e+02
-8.294867e+02
-7.414253e+02
-6.786742e+02
-6.712444e+02
-5.917054e+02
-4.682745e+02
-3.448049e+02
-2.508434e+02
-2.102214e+02
-1.123658e+02
1.960721e+01
1.535328e+02
2.459135e+02
2.675566e+02
3.477495e+02
4.549725e+02
5.476557e+02
5.961646e+02
5.794432e+02
6.071501e+02
6.621216e+02
7.124756e+02
7.177824e+02
6.494480e+02
6.426153e+02
6.645648e+02
6.771452e+02
6.548239e+02
5.766765e+02
5.532106e+02
5.680123e+02
5.898488e+02
5.791333e+02
5.092127e+02
5.099531e+02
5.500970e+02
5.914176e+02
6.015341e+02
5.593103e+02
5.761543e+02
6.304797e+02
6.891061e+02
7.131511e+02
6.714194e+02
6.932265e+02
7.461758e+02
7.906099e+02
7.943471e+02
7.337304e+02
7.197255e+02
7.326400e+02
7.398870e+02
7.006574e+02
5.901072e+02
5.360646e+02
5.076155e+02
4.687889e+02
3.893806e+02
2.455198e+02
1.521290e+02
9.226578e+01
3.134317e+01
-6.515121e+01
-2.220469e+02
-3.104732e+02
-3.612065e+02
-4.065038e+02
-4.793598e+02
-6.031272e+02
-6.606807e+02
-6.714995e+02
-6.710841e+02
-6.944185e+02
-7.673694e+02
-7.660750e+02
-7.196207e+02
-6.651966e+02
-6.362385e+02
-6.597839e+02
-6.180729e+02
-5.372696e+02
-4.511463e+02
-3.994680e+02
-4.081615e+02
-3.564199e+02
-2.702223e+02
-1.889207e+02
-1.476789e+02
-1.738990e+02
-1.465307e+02
-9.321347e+01
-4.635287e+01
-4.310678e+01
-1.073110e+02
-1.163343e+02
-9.350531e+01
-7.777301e+01
-9.980511e+01
-1.847107e+02
-2.128999e+02
-2.097003e+02
-2.048279e+02
-2.371999e+02
-3.287029e+02
-3.557371e+02
-3.423134e+02
-3.285741e+02
-3.437516e+02
-4.151711e+02
-4.237504e+02
-3.969938e+02
-3.641229e+02
-3.643228e+02
-4.232397e+02
-4.171091e+02
-3.700319e+02
-3.228442e+02
-3.091866e+02
-3.498784e+02
-3.294081e+02
-2.759557e+02
-2.161396e+02
-1.890039e+02
-2.233667e+02
-1.937419e+02
-1.211497e+02
-5.088879e+01
-1.340564e+01
-2.916028e+01
1.565384e+01
9.141446e+01
1.736958e+02
2.211565e+02
2.019016e+02
2.443876e+02
3.255659e+02
4.003994e+02
4.361049e+02
4.137023e+02
4.446098e+02
5.008720e+02
5.558381e+02
5.715010e+02
5.160017e+02
5.179173e+02
5.555935e+02
5.839337e+02
5.736008e+02
5.052084e+02
4.927852e+02
5.080309e+02
5.287114e+02
5.135142e+02
4.316262e+02
4.126922e+02
4.357685e+02
4.529793e+02
4.365245e+02
3.662941e+02
3.558232e+02
3.760952e+02
4.044441e+02
3.957218e+02
3.209243e+02
3.066193e+02
3.310210e+02
3.450310e+02
3.221287e+02
2.399150e+02
2.134844e+02
2.143976e+02
2.204118e+02
1.862266e+02
8.422226e+01
4.214185e+01
3.698822e+01
2.198248e+01
-2.560022e+01
-1.295663e+02
-1.741650e+02
-1.854801e+02
-1.860875e+02
-2.229296e+02
-3.188028e+02
-3.469881e+02
-3.323275e+02
-3.210318e+02
-3.365527e+02
-4.061197e+02
-4.136596e+02
-3.847722e+02
-3.447923e+02
-3.419676e+02
-3.970075e+02
-3.883128e+02
-3.389895e+02
-2.970126e+02
-2.850541e+02
-3.330581e+02
-3.234935e+02
-2.815126e+02
-2.327911e+02
-2.252495e+02
-2.797729e+02
-2.727580e+02
-2.300902e+02
-1.959183e+02
-1.935271e+02
-2.513187e+02
-2.522027e+02
-2.177225e+02
-1.761442e+02
-1.725728e+02
-2.288658e+02
-2.183260e+02
-1.729842e+02
-1.306744e+02
-1.180880e+02
-1.632781e+02
-1.515859e+02
-1.001355e+02
-4.347205e+01
-2.270547e+01
-6.282159e+01
-3.706815e+01
2.250681e+01
7.774521e+01
9.813754e+01
5.923123e+01
7.412097e+01
1.230941e+02
1.737986e+02
1.838671e+02
1.284875e+02
1.344332e+02
1.724651e+02
2.025650e+02
1.959665e+02
1.267542e+02
1.117674e+02
1.296977e+02
1.498232e+02
1.322024e+02
5.107407e+01
3.236093e+01
4.912018e+01
6.211523e+01
4.107285e+01
-3.618167e+01
-5.240427e+01
-3.129892e+01
-3.158539e+00
-7.086853e+00
-7.079099e+01
-6.851151e+01
-2.851056e+01
1.120657e+01
1.688779e+01
-3.244199e+01
-2.114148e+01
2.642175e+01
7.839291e+01
9.575949e+01
4.959888e+01
6.555392e+01
1.165048e+02
1.620436e+02
1.698640e+02
1.185480e+02
1.231524e+02
1.590839e+02
1.949495e+02
1.936568e+02
1.264141e+02
1.180693e+02
1.456097e+02
1.680761e+02
1.519412e+02
7.733206e+01
6.296747e+01
7.883835e+01
9.934103e+01
8.660272e+01
1.180661e+01
-1.391357e+00
2.617834e+01
5.227704e+01
4.457489e+01
-1.930539e+01
-2.033652e+01
1.288965e+01
4.992569e+01
5.554633e+01
-9.262085e-02
6.621887e+00
5.156714e+01
9.662964e+01
1.030345e+02
5.280612e+01
5.956174e+01
1.001127e+02
1.376425e+02
1.401881e+02
7.598874e+01
7.268832e+01
1.023604e+02
1.298375e+02
1.176977e+02
4.474039e+01
2.513364e+01
3.932724e+01
4.900369e+01
2.196033e+01
-6.937262e+01
-9.622046e+01
-9.063074e+01
-8.257425e+01
-1.097418e+02
-1.929419e+02
-2.204309e+02
-2.073398e+02
-1.944399e+02
-2.136096e+02
-2.916565e+02
-2.988402e+02
-2.711197e+02
-2.358065e+02
-2.311391e+02
-2.815199e+02
-2.728864e+02
-2.217959e+02
-1.697078e+02
-1.518354e+02
-1.929566e+02
-1.664231e+02
-1.063633e+02
-4.476547e+01
-1.638403e+01
-4.634781e+01
-2.406503e+01
3.629886e+01
9.205722e+01
1.071619e+02
5.665710e+01
7.019055e+01
1.097802e+02
1.472767e+02
1.493359e+02
8.956339e+01
8.004724e+01
1.072846e+02
1.319945e+02
1.150594e+02
3.375439e+01
1.976468e+01
3.507373e+01
4.991895e+01
3.472897e+01
-3.842068e+01
-5.595367e+01
-3.293848e+01
-4.832733e+00
-1.464499e+01
-8.323578e+01
-8.298752e+01
-4.781894e+01
-1.279559e+01
-6.301422e+00
-5.675031e+01
-4.931171e+01
-3.553833e+00
4.727408e+01
5.978400e+01
9.162476e+00
2.296677e+01
7.093903e+01
1.111626e+02
1.169220e+02
6.320422e+01
6.344342e+01
9.538907e+01
1.304452e+02
1.245739e+02
5.197372e+01
3.926898e+01
6.142764e+01
7.330814e+01
4.970432e+01
-3.165518e+01
-5.675284e+01
-5.008835e+01
-3.685266e+01
-5.913184e+01
-1.455822e+02
-1.665028e+02
-1.479224e+02
-1.325909e+02
-1.491008e+02
-2.183321e+02
-2.266667e+02
-1.972762e+02
-1.577163e+02
-1.508649e+02
-2.025479e+02
-1.881873e+02
-1.319404e+02
-7.904041e+01
-5.770068e+01
-9.131467e+01
-6.406479e+01
-4.825134e+00
6.008945e+01
8.951337e+01
5.553082e+01
7.963324e+01
1.414367e+02
1.949519e+02
2.096548e+02
1.634771e+02
1.748017e+02
2.123785e+02
2.516110e+02
2.527566e+02
1.879208e+02
1.806224e+02
2.110250e+02
2.350665e+02
2.217084e+02
1.506415e+02
1.407813e+02
1.607289e+02
1.863134e+02
1.785899e+02
1.089258e+02
1.018655e+02
1.363924e+02
1.696094e+02
1.699745e+02
1.146504e+02
1.209884e+02
1.597497e+02
2.022328e+02
2.085877e+02
1.520007e+02
1.537614e+02
1.937876e+02
2.278593e+02
2.247297e+02
1.600436e+02
1.525197e+02
1.715555e+02
1.908502e+02
1.692328e+02
8.206064e+01
5.184055e+01
5.752872e+01
5.725687e+01
2.146564e+01
-7.459381e+01
-1.103929e+02
-1.160055e+02
-1.169951e+02
-1.532271e+02
-2.502965e+02
-2.835940e+02
-2.741384e+02
-2.660524e+02
-2.895506e+02
-3.658226e+02
-3.798949e+02
-3.594026e+02
-3.297520e+02
-3.331211e+02
-3.980732e+02
-3.961266e+02
-3.525322e+02
-3.122933e+02
-3.050293e+02
-3.505984e+02
-3.396435e+02
-2.963991e+02
-2.485743e+02
-2.369820e+02
-2.914639e+02
-2.826014e+02
-2.362430e+02
-1.955882e+02
-1.898761e+02
-2.403853e+02
-2.362324e+02
-2.008540e+02
-1.616115e+02
-1.595762e+02
-2.223891e+02
-2.206210e+02
-1.811595e+02
-1.450095e+02
-1.427653e+02
-1.952267e+02
-1.891611e+02
-1.485178e+02
-1.020083e+02
-8.762836e+01
-1.351207e+02
-1.162848e+02
-5.785275e+01
-6.674194e-02
2.458038e+01
-4.256775e+00
2.407266e+01
8.821060e+01
1.557225e+02
1.881979e+02
1.548740e+02
1.851268e+02
2.490984e+02
3.078521e+02
3.285637e+02
2.921971e+02
3.071516e+02
3.536491e+02
4.010701e+02
4.102770e+02
3.494513e+02
3.511505e+02
3.848435e+02
4.134108e+02
4.043399e+02
3.384430e+02
3.286509e+02
3.547578e+02
3.825507e+02
3.757091e+02
3.055227e+02
2.994124e+02
3.287109e+02
3.585835e+02
3.540694e+02
2.932014e+02
2.903726e+02
3.257673e+02
3.627049e+02
3.639248e+02
3.014968e+02
3.018342e+02
3.343534e+02
3.628289e+02
3.536989e+02
2.855395e+02
2.702029e+02
2.895253e+02
3.090784e+02
2.895716e+02
2.033149e+02
1.787738e+02
1.852793e+02
1.859056e+02
1.499664e+02
5.559091e+01
1.516357e+01
1.006415e+01
9.664459e+00
-2.800793e+01
-1.296072e+02
-1.647367e+02
-1.639050e+02
-1.672795e+02
-2.011465e+02
-2.897315e+02
-3.202389e+02
-3.138479e+02
-2.988787e+02
-3.195324e+02
-4.005898e+02
-4.155891e+02
-3.922082e+02
-3.724637e+02
-3.841693e+02
-4.532835e+02
-4.643888e+02
-4.403704e+02
-4.129150e+02
-4.221264e+02
-4.939361e+02
-5.038438e+02
-4.775507e+02
-4.562713e+02
-4.684645e+02
-5.396454e+02
-5.548797e+02
-5.373213e+02
-5.143497e+02
-5.293629e+02
-6.082049e+02
-6.212957e+02
-5.963747e+02
-5.752868e+02
-5.849359e+02
-6.493770e+02
-6.550597e+02
-6.248447e+02
-5.862881e+02
-5.825650e+02
-6.386990e+02
-6.280856e+02
-5.753216e+02
-5.235716e+02
-4.984414e+02
-5.283854e+02
-4.944759e+02
-4.231003e+02
-3.424914e+02
-2.951229e+02
-3.029337e+02
-2.454125e+02
-1.434722e+02
-3.902112e+01
3.795822e+01
6.128012e+01
1.503289e+02
2.770946e+02
4.099109e+02
5.075446e+02
5.469336e+02
6.474529e+02
7.852991e+02
9.202438e+02
1.019703e+03
1.054163e+03
1.142492e+03
1.257292e+03
1.363184e+03
1.420754e+03
1.404187e+03
1.435054e+03
1.486410e+03
1.521438e+03
1.506392e+03
1.417257e+03
1.370618e+03
1.343624e+03
1.304808e+03
1.215233e+03
1.051029e+03
9.399415e+02
8.574136e+02
7.665504e+02
6.400551e+02
4.536180e+02
3.274544e+02
2.403654e+02
1.604026e+02
5.136200e+01
-1.096045e+02
-1.997188e+02
-2.437476e+02
-2.783314e+02
-3.352555e+02
-4.406519e+02
-4.759523e+02
-4.661381e+02
-4.437376e+02
-4.500447e+02
-5.122119e+02
-5.087690e+02
-4.676011e+02
-4.288225e+02
-4.260966e+02
-4.832203e+02
-4.854018e+02
-4.570814e+02
-4.304391e+02
-4.439430e+02
-5.296352e+02
-5.579313e+02
-5.586413e+02
-5.693336e+02
-6.207439e+02
-7.319393e+02
-7.910996e+02
-8.147797e+02
-8.331335e+02
-8.839978e+02
-9.971252e+02
-1.038492e+03
-1.039471e+03
-1.036672e+03
-1.061238e+03
-1.128493e+03
-1.129199e+03
-1.080541e+03
-1.013519e+03
-9.674807e+02
-9.754811e+02
-9.059821e+02
-7.901283e+02
-6.699623e+02
-5.766780e+02
-5.318747e+02
-4.264268e+02
-2.838393e+02
-1.350968e+02
-2.376346e+01
2.049716e+01
1.227710e+02
2.538986e+02
3.714699e+02
4.437885e+02
4.479701e+02
4.978159e+02
5.699377e+02
6.362218e+02
6.544964e+02
5.979824e+02
5.955046e+02
6.215089e+02
6.356005e+02
6.104576e+02
5.263368e+02
4.971077e+02
5.022422e+02
5.126674e+02
4.908026e+02
4.088457e+02
3.954557e+02
4.250128e+02
4.586211e+02
4.639894e+02
4.194428e+02
4.366840e+02
4.931501e+02
5.554195e+02
5.830745e+02
5.487859e+02
5.776748e+02
6.405378e+02
6.981709e+02
7.175738e+02
6.712687e+02
6.743683e+02
7.017726e+02
7.197513e+02
6.892676e+02
5.861833e+02
5.329434e+02
5.069063e+02
4.690453e+02
3.892628e+02
2.412120e+02
1.459832e+02
7.749057e+01
8.737030e+00
-9.920694e+01
-2.670023e+02
-3.708823e+02
-4.314671e+02
-4.873847e+02
-5.689915e+02
-6.992852e+02
-7.586665e+02
-7.708905e+02
-7.675119e+02
-7.833631e+02
-8.475118e+02
-8.334081e+02
-7.676914e+02
-6.896281e+02
-6.345755e+02
-6.241862e+02
-5.465826e+02
-4.271270e+02
-2.993209e+02
-2.023998e+02
-1.684368e+02
-7.199496e+01
5.890210e+01
1.822525e+02
2.623772e+02
2.760340e+02
3.366336e+02
4.180806e+02
4.906884e+02
5.145924e+02
4.627935e+02
4.617184e+02
4.865365e+02
4.960949e+02
4.612295e+02
3.595217e+02
3.088797e+02
2.839604e+02
2.604359e+02
1.983167e+02
7.286459e+01
1.069135e+01
-8.086395e+00
-2.943729e+01
-8.069611e+01
-1.818466e+02
-2.194277e+02
-2.203267e+02
-2.072563e+02
-2.229668e+02
-2.982957e+02
-3.037416e+02
-2.640642e+02
-2.265952e+02
-2.205286e+02
-2.662366e+02
-2.538125e+02
-2.087757e+02
-1.586711e+02
-1.454952e+02
-1.981188e+02
-1.889933e+02
-1.431632e+02
-1.038394e+02
-9.959897e+01
-1.544887e+02
-1.549261e+02
-1.259667e+02
-9.462015e+01
-1.047072e+02
-1.791338e+02
-1.922659e+02
-1.668259e+02
-1.482703e+02
-1.597493e+02
-2.316600e+02
-2.448315e+02
-2.255826e+02
-2.004279e+02
-2.133571e+02
-2.851623e+02
-2.920905e+02
-2.589926e+02
-2.278884e+02
-2.253081e+02
-2.792804e+02
-2.721968e+02
-2.270955e+02
-1.747987e+02
-1.582781e+02
-2.005082e+02
-1.768882e+02
-1.153874e+02
-5.740759e+01
-2.837137e+01
-5.789587e+01
-2.899298e+01
3.473547e+01
1.036240e+02
1.314457e+02
9.623090e+01
1.235095e+02
1.822751e+02
2.344027e+02
2.522116e+02
2.067409e+02
2.155590e+02
2.586255e+02
3.023174e+02
3.047724e+02
2.461509e+02
2.482126e+02
2.831943e+02
3.140043e+02
3.124483e+02
2.482694e+02
2.445841e+02
2.779763e+02
3.171870e+02
3.209429e+02
2.665722e+02
2.767308e+02
3.233456e+02
3.654156e+02
3.741397e+02
3.235058e+02
3.300028e+02
3.714951e+02
4.181117e+02
4.276931e+02
3.733053e+02
3.795085e+02
4.164265e+02
4.437372e+02
4.310030e+02
3.557927e+02
3.321178e+02
3.406266e+02
3.500487e+02
3.211168e+02
2.241094e+02
1.878210e+02
1.824131e+02
1.701701e+02
1.203037e+02
1.285437e+01
-3.836847e+01
-5.322946e+01
-6.309033e+01
-1.051008e+02
-2.092128e+02
-2.465147e+02
-2.447406e+02
-2.419475e+02
-2.727191e+02
-3.545406e+02
-3.751991e+02
-3.561409e+02
-3.315956e+02
-3.350216e+02
-4.004289e+02
-4.000173e+02
-3.617680e+02
-3.224486e+02
-3.209918e+02
-3.736893e+02
-3.677669e+02
-3.272373e+02
-2.845840e+02
-2.749912e+02
-3.325749e+02
-3.275263e+02
-2.886235e+02
-2.538266e+02
-2.566745e+02
-3.147903e+02
-3.179752e+02
-2.856017e+02
-2.508323e+02
-2.510047e+02
-3.180449e+02
-3.192040e+02
-2.843783e+02
-2.504097e+02
-2.491407e+02
-3.006791e+02
-2.923970e+02
-2.453585e+02
-1.941184e+02
-1.767474e+02
-2.223530e+02
-2.031746e+02
-1.461188e+02
-8.840280e+01
-6.345911e+01
-9.288058e+01
-6.258221e+01
8.952026e-01
6.631436e+01
9.427707e+01
5.681302e+01
7.965503e+01
1.386788e+02
1.930717e+02
2.120042e+02
1.722968e+02
1.886620e+02
2.360467e+02
2.858250e+02
2.949222e+02
2.383508e+02
2.438202e+02
2.844614e+02
3.191871e+02
3.215739e+02
2.640985e+02
2.629635e+02
2.946949e+02
3.310098e+02
3.266516e+02
2.596725e+02
2.558576e+02
2.881493e+02
3.137187e+02
3.078455e+02
2.432599e+02
2.326636e+02
2.559825e+02
2.836025e+02
2.695431e+02
1.916544e+02
1.776050e+02
1.986174e+02
2.134676e+02
1.968461e+02
1.212513e+02
1.016513e+02
1.147029e+02
1.321282e+02
1.097983e+02
2.577719e+01
5.696198e+00
2.275079e+01
3.597095e+01
1.781711e+01
-5.778217e+01
-7.728183e+01
-6.161496e+01
-4.142133e+01
-5.851511e+01
-1.378791e+02
-1.500038e+02
-1.256987e+02
-1.040756e+02
-1.143140e+02
-1.809482e+02
-1.931473e+02
-1.683711e+02
-1.388768e+02
-1.466803e+02
-2.177321e+02
-2.195826e+02
-1.881873e+02
-1.584085e+02
-1.607216e+02
-2.172454e+02
-2.196449e+02
-1.848536e+02
-1.463583e+02
-1.430384e+02
-2.039178e+02
-1.974652e+02
-1.544651e+02
-1.139936e+02
-1.072318e+02
-1.547007e+02
-1.465817e+02
-1.032566e+02
-5.591876e+01
-4.371713e+01
-9.758115e+01
-8.612241e+01
-3.825623e+01
6.218567e+00
1.557053e+01
-3.030246e+01
-2.011069e+01
2.311334e+01
6.891855e+01
7.931512e+01
2.428241e+01
3.115790e+01
7.518234e+01
1.153363e+02
1.193724e+02
6.584290e+01
6.954642e+01
1.051425e+02
1.434776e+02
1.464507e+02
8.515640e+01
8.507391e+01
1.213736e+02
1.532742e+02
1.471786e+02
8.305115e+01
7.724713e+01
1.017852e+02
1.301860e+02
1.235342e+02
5.283151e+01
4.147977e+01
6.966638e+01
9.132388e+01
7.720187e+01
5.786407e+00
-5.163910e+00
1.388074e+01
3.975507e+01
3.138177e+01
-4.023752e+01
-5.163443e+01
-2.175061e+01
2.592712e+00
-8.187836e+00
-7.720773e+01
-8.496658e+01
-6.250925e+01
-3.436621e+01
-4.137430e+01
-1.106106e+02
-1.205038e+02
-9.175934e+01
-6.751208e+01
-7.906699e+01
-1.488912e+02
-1.581045e+02
-1.350506e+02
-1.079486e+02
-1.140692e+02
-1.822162e+02
-1.889342e+02
-1.561501e+02
-1.256017e+02
-1.291170e+02
-1.877914e+02
-1.851490e+02
-1.471610e+02
-1.023548e+02
-9.078784e+01
-1.404508e+02
-1.258246e+02
-7.269131e+01
-2.211673e+01
-5.476532e+00
-4.434113e+01
-2.574893e+01
2.695856e+01
8.348712e+01
1.035396e+02
5.724249e+01
7.314426e+01
1.233667e+02
1.690138e+02
1.782770e+02
1.300682e+02
1.358483e+02
1.756716e+02
2.158931e+02
2.185778e+02
1.556080e+02
1.564235e+02
1.894570e+02
2.214976e+02
2.181834e+02
1.569797e+02
1.508591e+02
1.835050e+02
2.146328e+02
2.091555e+02
1.420277e+02
1.379114e+02
1.660206e+02
1.944174e+02
1.885434e+02
1.222199e+02
1.129935e+02
1.410842e+02
1.687751e+02
1.591418e+02
8.812640e+01
7.826633e+01
1.019635e+02
1.239488e+02
1.129049e+02
4.121924e+01
2.782529e+01
5.049960e+01
7.579813e+01
6.149765e+01
-1.333417e+01
-2.618643e+01
-5.787872e+00
1.286807e+01
-9.677734e-01
-7.644724e+01
-9.402963e+01
-7.642203e+01
-5.927374e+01
-8.057391e+01
-1.633754e+02
-1.860243e+02
-1.740112e+02
-1.625353e+02
-1.848965e+02
-2.675741e+02
-2.885675e+02
-2.739515e+02
-2.561388e+02
-2.733620e+02
-3.474656e+02
-3.589109e+02
-3.303773e+02
-2.998713e+02
-2.991038e+02
-3.552737e+02
-3.469614e+02
-3.008889e+02
-2.489319e+02
-2.311208e+02
-2.724945e+02
-2.526053e+02
-1.930258e+02
-1.371397e+02
-1.142856e+02
-1.499846e+02
-1.244603e+02
-6.984940e+01
-1.154047e+01
8.203888e+00
-3.847668e+01
-2.810132e+01
2.058646e+01
6.159259e+01
6.530817e+01
1.365421e+01
2.004456e+01
5.669089e+01
9.688159e+01
1.027448e+02
4.131854e+01
4.302515e+01
8.520056e+01
1.256070e+02
1.309585e+02
8.486234e+01
9.816785e+01
1.445443e+02
1.946340e+02
2.123055e+02
1.646866e+02
1.802104e+02
2.340373e+02
2.852464e+02
2.991549e+02
2.566725e+02
2.712206e+02
3.158779e+02
3.619239e+02
3.703722e+02
3.113270e+02
3.120913e+02
3.478662e+02
3.755265e+02
3.657874e+02
2.961379e+02
2.803124e+02
2.949782e+02
3.108509e+02
2.878093e+02
1.980657e+02
1.700387e+02
1.768529e+02
1.787413e+02
1.452321e+02
5.635745e+01
2.348938e+01
2.479782e+01
3.084045e+01
2.854523e+00
-8.795837e+01
-1.122879e+02
-9.776334e+01
-8.432629e+01
-1.022234e+02
-1.748309e+02
-1.894398e+02
-1.663833e+02
-1.378745e+02
-1.430360e+02
-2.088655e+02
-2.071523e+02
-1.688266e+02
-1.327299e+02
-1.295732e+02
-1.855535e+02
-1.864243e+02
-1.542354e+02
-1.185294e+02
-1.222474e+02
-1.884518e+02
-1.927906e+02
-1.620490e+02
-1.401127e+02
-1.521611e+02
-2.267089e+02
-2.458799e+02
-2.339983e+02
-2.160484e+02
-2.370742e+02
-3.199005e+02
-3.399950e+02
-3.202379e+02
-3.072971e+02
-3.246786e+02
-3.975321e+02
-4.114888e+02
-3.905149e+02
-3.590680e+02
-3.610588e+02
-4.236765e+02
-4.185364e+02
-3.714968e+02
-3.276000e+02
-3.141298e+02
-3.539234e+02
-3.351845e+02
-2.833337e+02
-2.236058e+02
-1.991752e+02
-2.401923e+02
-2.161676e+02
-1.540941e+02
-9.969266e+01
-8.061890e+01
-1.171897e+02
-1.008999e+02
-5.274921e+01
7.883606e-01
1.783533e+01
-2.982413e+01
-1.168057e+01
4.555899e+01
9.986914e+01
1.239824e+02
9.712021e+01
1.301766e+02
2.018454e+02
2.849141e+02
3.372464e+02
3.295464e+02
3.923317e+02
4.968206e+02
6.001923e+02
6.727792e+02
6.920408e+02
7.655578e+02
8.733833e+02
9.819532e+02
1.048410e+03
1.041259e+03
1.091064e+03
1.162180e+03
1.217517e+03
1.224808e+03
1.160193e+03
1.132764e+03
1.127220e+03
1.106312e+03
1.032068e+03
8.773408e+02
7.768887e+02
6.939795e+02
6.008578e+02
4.671299e+02
2.715751e+02
1.259952e+02
2.171738e+01
-7.861926e+01
-2.106833e+02
-3.986021e+02
-5.094384e+02
-5.767092e+02
-6.323312e+02
-7.053723e+02
-8.205134e+02
-8.665626e+02
-8.588481e+02
-8.336117e+02
-8.340620e+02
-8.863760e+02
-8.639400e+02
-8.018397e+02
-7.361743e+02
-6.988522e+02
-7.192964e+02
-6.831906e+02
-6.117905e+02
-5.419532e+02
-5.168253e+02
-5.597120e+02
-5.462348e+02
-5.061984e+02
-4.758805e+02
-4.845541e+02
-5.587574e+02
-5.813869e+02
-5.724962e+02
-5.632232e+02
-5.934689e+02
-6.849211e+02
-7.105140e+02
-6.976634e+02
-6.819519e+02
-6.916625e+02
-7.516623e+02
-7.450143e+02
-6.933404e+02
-6.281121e+02
-5.901402e+02
-6.035394e+02
-5.437126e+02
-4.364530e+02
-3.242529e+02
-2.366872e+02
-2.017054e+02
-1.038454e+02
2.918668e+01
1.684981e+02
2.692991e+02
3.060677e+02
3.997610e+02
5.271104e+02
6.416646e+02
7.134007e+02
7.158603e+02
7.671712e+02
8.363990e+02
8.988740e+02
9.127237e+02
8.529889e+02
8.433016e+02
8.634459e+02
8.705921e+02
8.358261e+02
7.351367e+02
6.898417e+02
6.731470e+02
6.581900e+02
6.082193e+02
4.997652e+02
4.565881e+02
4.570982e+02
4.605647e+02
4.354152e+02
3.576469e+02
3.455747e+02
3.721608e+02
4.075408e+02
4.124867e+02
3.597984e+02
3.715855e+02
4.218052e+02
4.679677e+02
4.764071e+02
4.214411e+02
4.196281e+02
4.443568e+02
4.641813e+02
4.387757e+02
3.412923e+02
2.951954e+02
2.746167e+02
2.407923e+02
1.612566e+02
1.519556e+01
-7.984796e+01
-1.475531e+02
-2.162421e+02
-3.195808e+02
-4.852828e+02
-5.867030e+02
-6.472416e+02
-7.028604e+02
-7.866257e+02
-9.168387e+02
-9.756983e+02
-9.854081e+02
-9.791219e+02
-9.899254e+02
-1.048684e+03
-1.030128e+03
-9.611329e+02
-8.795041e+02
-8.229195e+02
-8.106177e+02
-7.323580e+02
-6.100629e+02
-4.803458e+02
-3.801888e+02
-3.427506e+02
-2.427581e+02
-1.109680e+02
1.356253e+01
9.559192e+01
1.144317e+02
1.807679e+02
2.752086e+02
3.625949e+02
4.068747e+02
3.759288e+02
4.000792e+02
4.484497e+02
4.872758e+02
4.819799e+02
4.152411e+02
3.983695e+02
4.154723e+02
4.300654e+02
4.092990e+02
3.219696e+02
2.995145e+02
3.101507e+02
3.198662e+02
2.935487e+02
2.125116e+02
1.876111e+02
1.984767e+02
2.119439e+02
1.920797e+02
1.077545e+02
8.651239e+01
1.014717e+02
1.128194e+02
8.719580e+01
3.205994e+00
-2.458667e+01
-1.813315e+01
-9.081085e+00
-3.699619e+01
-1.270994e+02
-1.538673e+02
-1.439945e+02
-1.366322e+02
-1.607090e+02
-2.399828e+02
-2.595792e+02
-2.427535e+02
-2.168450e+02
-2.247112e+02
-2.924495e+02
-2.925829e+02
-2.519414e+02
-2.135205e+02
-2.046868e+02
-2.498077e+02
-2.355672e+02
-1.868695e+02
-1.324476e+02
-1.149569e+02
-1.617766e+02
-1.466077e+02
-9.408054e+01
-4.752814e+01
-3.594949e+01
-8.314395e+01
-7.446136e+01
-3.804095e+01
7.218018e-01
9.674988e-01
-6.447687e+01
-7.018768e+01
-3.480341e+01
-6.337860e+00
-1.103604e+01
-7.217471e+01
-7.335602e+01
-4.622260e+01
-9.533997e+00
-8.894867e+00
-6.944708e+01
-6.776520e+01
-1.934021e+01
2.351074e+01
3.676132e+01
-5.366180e+00
1.497870e+01
6.655173e+01
1.267363e+02
1.506296e+02
1.120555e+02
1.353844e+02
1.978057e+02
2.540873e+02
2.767922e+02
2.405648e+02
2.597813e+02
3.095993e+02
3.610458e+02
3.725089e+02
3.168602e+02
3.205807e+02
3.600465e+02
3.918343e+02
3.870259e+02
3.220739e+02
3.119419e+02
3.313969e+02
3.519046e+02
3.337238e+02
2.509256e+02
2.290914e+02
2.435095e+02
2.540234e+02
2.303215e+02
1.463478e+02
1.216135e+02
1.303029e+02
1.425025e+02
1.185653e+02
3.543939e+01
1.456699e+01
3.043124e+01
4.365012e+01
2.416019e+01
-5.558099e+01
-7.571786e+01
-5.953253e+01
-3.955527e+01
-5.672336e+01
-1.329237e+02
-1.467711e+02
-1.280472e+02
-1.117743e+02
-1.294984e+02
-2.092785e+02
-2.317274e+02
-2.147395e+02
-1.970522e+02
-2.154841e+02
-2.940204e+02
-3.092205e+02
-2.937768e+02
-2.788826e+02
-2.986517e+02
-3.776155e+02
-3.979818e+02
-3.779350e+02
-3.547972e+02
-3.645677e+02
-4.330683e+02
-4.357616e+02
-4.015387e+02
-3.663493e+02
-3.625946e+02
-4.143818e+02
-4.042377e+02
-3.551364e+02
-2.997779e+02
-2.769176e+02
-3.125886e+02
-2.833214e+02
-2.160370e+02
-1.519999e+02
-1.203593e+02
-1.477356e+02
-1.172462e+02
-5.248871e+01
1.601315e+01
4.525455e+01
1.129523e+01
3.762122e+01
9.715134e+01
1.477881e+02
1.631130e+02
1.169316e+02
1.247493e+02
1.655549e+02
2.095432e+02
2.140722e+02
1.540805e+02
1.571857e+02
1.955787e+02
2.279161e+02
2.282720e+02
1.711104e+02
1.713810e+02
2.065897e+02
2.482377e+02
2.524792e+02
1.933689e+02
1.995020e+02
2.417910e+02
2.781276e+02
2.811380e+02
2.275900e+02
2.289714e+02
2.622378e+02
3.005391e+02
2.982064e+02
2.291501e+02
2.229362e+02
2.527331e+02
2.731613e+02
2.612020e+02
1.913546e+02
1.756457e+02
1.926180e+02
2.157270e+02
1.981531e+02
1.171322e+02
1.022436e+02
1.234525e+02
1.386158e+02
1.244763e+02
5.505197e+01
4.080032e+01
6.263120e+01
9.164587e+01
8.126822e+01
6.632843e+00
-1.778015e+00
2.413641e+01
4.283337e+01
2.948489e+01
-4.120544e+01
-5.748239e+01
-3.885229e+01
-1.692142e+01
-3.439642e+01
-1.170428e+02
-1.353785e+02
-1.203921e+02
-1.093806e+02
-1.315280e+02
-2.087646e+02
-2.296810e+02
-2.133263e+02
-1.916720e+02
-2.062260e+02
-2.827979e+02
-2.918840e+02
-2.634116e+02
-2.378664e+02
-2.420404e+02
-2.992539e+02
-2.977126e+02
-2.588771e+02
-2.123243e+02
-2.017835e+02
-2.530136e+02
-2.386006e+02
-1.854815e+02
-1.368628e+02
-1.190388e+02
-1.579884e+02
-1.384318e+02
-8.642313e+01
-2.984406e+01
-1.133282e+01
-5.682800e+01
-4.107404e+01
1.110724e+01
5.724210e+01
6.826572e+01
1.985959e+01
2.961697e+01
6.905856e+01
1.097138e+02
1.117043e+02
4.931628e+01
4.486383e+01
7.839459e+01
1.068768e+02
9.901840e+01
3.205417e+01
2.632230e+01
4.978519e+01
7.678482e+01
6.880576e+01
1.823425e-01
-8.751831e+00
2.511633e+01
5.751663e+01
5.653955e+01
-1.036804e+00
5.353943e+00
4.215268e+01
8.288058e+01
9.052692e+01
3.643689e+01
4.275650e+01
9.022342e+01
1.336625e+02
1.396030e+02
8.724323e+01
9.361731e+01
1.264521e+02
1.599668e+02
1.585298e+02
9.041452e+01
7.985281e+01
1.080087e+02
1.316542e+02
1.159366e+02
4.270731e+01
2.966211e+01
4.541922e+01
6.177362e+01
4.703149e+01
-3.144904e+01
-4.733585e+01
-2.254163e+01
3.141357e+00
-7.646454e+00
-7.084979e+01
-7.324680e+01
-4.098016e+01
-5.712616e+00
-1.787720e-01
-5.830484e+01
-5.303107e+01
-1.032773e+01
3.069867e+01
3.479514e+01
-1.747864e+01
-1.356604e+01
2.292188e+01
5.979071e+01
6.195917e+01
-4.258331e+00
-7.642059e+00
2.167493e+01
4.610004e+01
3.116388e+01
-3.899860e+01
-5.609665e+01
-3.831070e+01
-1.998843e+01
-3.478314e+01
-1.174454e+02
-1.327165e+02
-1.146036e+02
-9.696924e+01
-1.158937e+02
-1.846601e+02
-1.976535e+02
-1.706007e+02
-1.385974e+02
-1.366222e+02
-1.993497e+02
-1.915628e+02
-1.476214e+02
-1.022502e+02
-9.091306e+01
-1.295084e+02
-1.128722e+02
-5.742847e+01
4.017944e-01
2.396902e+01
-1.859641e+01
4.880463e+00
5.928409e+01
1.096643e+02
1.229634e+02
7.789252e+01
8.309702e+01
1.238189e+02
1.629332e+02
1.625218e+02
9.490488e+01
9.039435e+01
1.147746e+02
1.342836e+02
1.185200e+02
4.460443e+01
2.478680e+01
4.285861e+01
6.337766e+01
4.865591e+01
-2.709143e+01
-3.458221e+01
-6.823456e+00
2.220886e+01
2.043958e+01
-3.547607e+01
-3.385568e+01
6.664307e+00
5.094833e+01
6.000653e+01
7.015594e+00
1.922406e+01
6.439709e+01
1.078703e+02
1.170779e+02
6.594168e+01
6.871948e+01
1.051247e+02
1.407194e+02
1.357080e+02
6.813870e+01
6.129175e+01
8.721289e+01
1.080368e+02
9.853873e+01
2.635486e+01
1.135498e+01
3.198386e+01
5.719092e+01
4.196771e+01
-3.036441e+01
-3.737170e+01
-9.087830e+00
1.686719e+01
1.505112e+01
-4.752902e+01
-5.155618e+01
-1.814090e+01
2.127936e+01
1.985654e+01
-3.941312e+01
-3.706467e+01
-6.820679e-02
3.135620e+01
3.199600e+01
-2.962320e+01
-3.279285e+01
-3.996246e+00
3.045837e+01
2.335620e+01
-4.412122e+01
-5.153000e+01
-2.083307e+01
2.990448e+00
-4.620453e+00
-7.162317e+01
-7.965372e+01
-5.459836e+01
-2.311523e+01
-3.000378e+01
-9.807428e+01
-1.048954e+02
-7.410110e+01
-4.889581e+01
-5.542545e+01
-1.209937e+02
-1.268070e+02
-9.912949e+01
-6.436154e+01
-6.756342e+01
-1.295396e+02
-1.299374e+02
-9.163513e+01
-5.962195e+01
-5.850989e+01
-1.163705e+02
-1.138448e+02
-7.685760e+01
-3.123627e+01
-2.295938e+01
-7.490131e+01
-6.468091e+01
-1.694360e+01
2.391571e+01
2.965155e+01
-2.402872e+01
-2.041800e+01
1.424493e+01
5.257538e+01
5.450864e+01
-9.752289e+00
-1.572757e+01
1.381400e+01
3.485422e+01
1.788113e+01
-5.812183e+01
-7.578070e+01
-6.200055e+01
-4.346133e+01
-5.905978e+01
-1.377043e+02
-1.539920e+02
-1.306936e+02
-1.110364e+02
-1.263371e+02
-1.960271e+02
-2.053279e+02
-1.795671e+02
-1.471022e+02
-1.471067e+02
-2.104029e+02
-2.095821e+02
-1.724220e+02
-1.389374e+02
-1.418000e+02
-2.009509e+02
-2.040273e+02
-1.728142e+02
-1.380576e+02
-1.376166e+02
-1.993051e+02
-1.957639e+02
-1.526696e+02
-1.103000e+02
-9.879910e+01
-1.395949e+02
-1.170280e+02
-5.444769e+01
1.981235e+01
6.657370e+01
5.594116e+01
1.162621e+02
2.195594e+02
3.248416e+02
3.983822e+02
4.201099e+02
4.992498e+02
6.127829e+02
7.259739e+02
8.008780e+02
8.035512e+02
8.612375e+02
9.442132e+02
1.011284e+03
1.028257e+03
9.747029e+02
9.623571e+02
9.679177e+02
9.611520e+02
9.031835e+02
7.672315e+02
6.817361e+02
6.209234e+02
5.470249e+02
4.317314e+02
2.541561e+02
1.307530e+02
4.165036e+01
-4.249469e+01
-1.572359e+02
-3.283861e+02
-4.264477e+02
-4.781165e+02
-5.202321e+02
-5.828307e+02
-6.894081e+02
-7.261060e+02
-7.142937e+02
-6.881419e+02
-6.867015e+02
-7.370488e+02
-7.148866e+02
-6.502887e+02
-5.812887e+02
-5.425956e+02
-5.615608e+02
-5.231241e+02
-4.515851e+02
-3.827444e+02
-3.546104e+02
-3.944595e+02
-3.791310e+02
-3.366459e+02
-3.041240e+02
-3.137089e+02
-3.890611e+02
-4.133603e+02
-4.088263e+02
-4.073560e+02
-4.447548e+02
-5.467361e+02
-5.854830e+02
-5.865413e+02
-5.842104e+02
-6.106761e+02
-6.877426e+02
-6.976740e+02
-6.631002e+02
-6.161346e+02
-5.924774e+02
-6.191003e+02
-5.715796e+02
-4.756888e+02
-3.685510e+02
-2.857239e+02
-2.521116e+02
-1.533162e+02
-1.420197e+01
1.275526e+02
2.352277e+02
2.783074e+02
3.806297e+02
5.117170e+02
6.363037e+02
7.152736e+02
7.270561e+02
7.837209e+02
8.631035e+02
9.286325e+02
9.463464e+02
8.851769e+02
8.748135e+02
8.867683e+02
8.874281e+02
8.418971e+02
7.329722e+02
6.740863e+02
6.474308e+02
6.203408e+02
5.599742e+02
4.349201e+02
3.781207e+02
3.609358e+02
3.488815e+02
3.073741e+02
2.204307e+02
1.974830e+02
2.185229e+02
2.508732e+02
2.563043e+02
2.005817e+02
2.148938e+02
2.681925e+02
3.210217e+02
3.386343e+02
3.011916e+02
3.153586e+02
3.605635e+02
4.013203e+02
4.000989e+02
3.228876e+02
3.011904e+02
3.021633e+02
2.900146e+02
2.299054e+02
1.038902e+02
2.269305e+01
-3.030444e+01
-8.846957e+01
-1.878337e+02
-3.570530e+02
-4.622246e+02
-5.337442e+02
-6.044966e+02
-7.048920e+02
-8.531276e+02
-9.359945e+02
-9.705535e+02
-9.869670e+02
-1.024630e+03
-1.110215e+03
-1.115002e+03
-1.066785e+03
-1.005488e+03
-9.620337e+02
-9.604890e+02
-8.882985e+02
-7.694289e+02
-6.365914e+02
-5.330966e+02
-4.870095e+02
-3.747942e+02
-2.252180e+02
-8.160849e+01
2.522949e+01
6.581238e+01
1.570162e+02
2.724598e+02
3.807156e+02
4.381736e+02
4.239984e+02
4.586749e+02
5.183329e+02
5.629720e+02
5.656819e+02
4.974322e+02
4.798129e+02
4.900097e+02
4.992578e+02
4.645031e+02
3.679123e+02
3.332017e+02
3.347288e+02
3.332775e+02
3.015067e+02
2.110930e+02
1.811395e+02
1.884421e+02
2.036308e+02
1.823879e+02
1.040042e+02
9.020551e+01
1.161409e+02
1.387610e+02
1.322182e+02
6.651163e+01
5.918564e+01
8.439120e+01
1.153263e+02
1.057486e+02
3.478143e+01
2.599994e+01
5.569113e+01
7.747318e+01
6.789264e+01
-2.444336e+00
-1.557104e+01
2.239502e+00
2.550781e+01
7.963806e+00
-7.211374e+01
-8.905362e+01
-6.867252e+01
-5.496591e+01
-7.261108e+01
-1.485916e+02
-1.692832e+02
-1.565153e+02
-1.370071e+02
-1.567916e+02
-2.397455e+02
-2.572571e+02
-2.369052e+02
-2.219190e+02
-2.367018e+02
-3.057288e+02
-3.171144e+02
-2.910353e+02
-2.557953e+02
-2.557345e+02
-3.178036e+02
-3.103657e+02
-2.623004e+02
-2.166196e+02
-2.010904e+02
-2.377969e+02
-2.172178e+02
-1.613439e+02
-9.985080e+01
-7.379053e+01
-1.121619e+02
-8.637866e+01
-2.326535e+01
3.391415e+01
5.581345e+01
1.897134e+01
3.834308e+01
8.846762e+01
1.409325e+02
1.525837e+02
9.953827e+01
1.073717e+02
1.511311e+02
1.888129e+02
1.918402e+02
1.361595e+02
1.373670e+02
1.724232e+02
2.116160e+02
2.141320e+02
1.551074e+02
1.601999e+02
2.025119e+02
2.417473e+02
2.488390e+02
1.984741e+02
2.055893e+02
2.476487e+02
2.932436e+02
3.013730e+02
2.462723e+02
2.545141e+02
2.969126e+02
3.333888e+02
3.335243e+02
2.733102e+02
2.671215e+02
2.927265e+02
3.183872e+02
3.053791e+02
2.277259e+02
2.099182e+02
2.260252e+02
2.367707e+02
2.111033e+02
1.246552e+02
9.533698e+01
9.768204e+01
1.034052e+02
7.355429e+01
-1.860007e+01
-4.739954e+01
-3.881067e+01
-3.369858e+01
-6.346109e+01
-1.490810e+02
-1.759818e+02
-1.671511e+02
-1.512946e+02
-1.701519e+02
-2.506091e+02
-2.660803e+02
-2.434492e+02
-2.260484e+02
-2.410137e+02
-3.118597e+02
-3.246408e+02
-3.028685e+02
-2.740158e+02
-2.791502e+02
-3.481899e+02
-3.505515e+02
-3.152839e+02
-2.844721e+02
-2.886075e+02
-3.466725e+02
-3.471781e+02
-3.122256e+02
-2.705901e+02
-2.619959e+02
-3.172629e+02
-3.078337e+02
-2.605472e+02
-2.178055e+02
-2.106513e+02
-2.582716e+02
-2.478917e+02
-2.030550e+02
-1.542024e+02
-1.382801e+02
-1.869878e+02
-1.738889e+02
-1.231237e+02
-7.585574e+01
-6.646701e+01
-1.118972e+02
-9.789084e+01
-5.061139e+01
1.103668e+00
1.953339e+01
-2.615631e+01
-8.643280e+00
4.713098e+01
9.887903e+01
1.144838e+02
7.554434e+01
9.488800e+01
1.470578e+02
2.036012e+02
2.245987e+02
1.812727e+02
1.990345e+02
2.519940e+02
3.000333e+02
3.116765e+02
2.639927e+02
2.733132e+02
3.135962e+02
3.540634e+02
3.569676e+02
2.943727e+02
2.896710e+02
3.200724e+02
3.471909e+02
3.368703e+02
2.676398e+02
2.572563e+02
2.784400e+02
2.996767e+02
2.859219e+02
2.083324e+02
1.903411e+02
2.092625e+02
2.269872e+02
2.099359e+02
1.351180e+02
1.199760e+02
1.378408e+02
1.569009e+02
1.403135e+02
6.025162e+01
4.214697e+01
6.252753e+01
8.111249e+01
6.563510e+01
-6.226196e+00
-1.871835e+01
6.808472e-02
2.371768e+01
1.091403e+01
-6.504288e+01
-7.779486e+01
-5.010989e+01
-2.696985e+01
-3.618729e+01
-1.017350e+02
-1.093100e+02
-8.581125e+01
-5.786270e+01
-6.747821e+01
-1.406234e+02
-1.518973e+02
-1.238685e+02
-1.006909e+02
-1.106860e+02
-1.792766e+02
-1.896000e+02
-1.688171e+02
-1.441195e+02
-1.566392e+02
-2.311684e+02
-2.422318e+02
-2.126040e+02
-1.860320e+02
-1.911478e+02
-2.510185e+02
-2.522483e+02
-2.206853e+02
-1.819004e+02
-1.778209e+02
-2.344955e+02
-2.246442e+02
-1.729539e+02
-1.245568e+02
-1.077408e+02
-1.482026e+02
-1.332515e+02
-8.610074e+01
-3.412589e+01
-1.947849e+01
-6.924734e+01
-5.605966e+01
-5.590393e+00
3.724622e+01
4.483609e+01
-8.030182e+00
-7.013977e+00
2.316489e+01
5.592966e+01
5.041940e+01
-1.940750e+01
-2.815237e+01
7.515259e-01
2.523151e+01
1.494669e+01
-5.456418e+01
-6.541003e+01
-4.088962e+01
-1.316574e+01
-1.941388e+01
-8.463901e+01
-8.436404e+01
-4.740033e+01
-8.504578e+00
-2.459900e+00
-5.353519e+01
-4.526587e+01
1.408264e+00
4.988956e+01
6.413394e+01
1.697763e+01
3.294440e+01
8.223538e+01
1.297362e+02
1.401243e+02
9.071481e+01
9.637549e+01
1.347076e+02
1.715818e+02
1.717819e+02
1.042984e+02
9.672888e+01
1.210773e+02
1.416589e+02
1.238849e+02
4.758194e+01
2.829068e+01
4.394421e+01
6.013501e+01
4.312238e+01
-3.718683e+01
-5.326550e+01
-3.291336e+01
-1.202985e+01
-2.371045e+01
-8.765518e+01
-9.000372e+01
-5.316772e+01
-1.029456e+01
-3.569946e-01
-5.241620e+01
-4.017401e+01
8.392212e+00
5.554193e+01
6.871790e+01
2.560306e+01
3.845752e+01
8.623792e+01
1.343816e+02
1.440350e+02
8.604492e+01
8.973886e+01
1.232715e+02
1.506767e+02
1.417391e+02
7.478729e+01
6.064511e+01
7.998486e+01
1.027567e+02
8.781912e+01
6.228729e+00
-1.040799e+01
1.105161e+01
2.895142e+01
1.568945e+01
-4.981799e+01
-5.604300e+01
-2.591907e+01
1.319269e+01
1.836414e+01
-3.848642e+01
-2.888174e+01
2.042593e+01
6.649881e+01
8.188593e+01
4.191791e+01
5.856754e+01
1.093133e+02
1.639334e+02
1.781717e+02
1.269398e+02
1.377680e+02
1.805816e+02
2.165408e+02
2.159577e+02
1.536082e+02
1.429666e+02
1.639968e+02
1.852105e+02
1.657174e+02
7.846286e+01
5.297226e+01
5.958792e+01
6.137732e+01
2.712976e+01
-6.457974e+01
-1.008797e+02
-1.019707e+02
-9.988730e+01
-1.317135e+02
-2.252558e+02
-2.520616e+02
-2.418903e+02
-2.304651e+02
-2.514090e+02
-3.247945e+02
-3.383505e+02
-3.119153e+02
-2.780875e+02
-2.749198e+02
-3.324973e+02
-3.235392e+02
-2.766653e+02
-2.301021e+02
-2.183379e+02
-2.610165e+02
-2.454687e+02
-1.938901e+02
-1.396236e+02
-1.200828e+02
-1.671937e+02
-1.526068e+02
-1.079213e+02
-6.691391e+01
-6.551468e+01
-1.227670e+02
-1.272122e+02
-9.445508e+01
-6.195987e+01
-6.484113e+01
-1.339966e+02
-1.378691e+02
-1.099076e+02
-8.218265e+01
-9.014923e+01
-1.521928e+02
-1.563639e+02
-1.197768e+02
-7.780765e+01
-6.486798e+01
-1.137876e+02
-9.406421e+01
-3.647839e+01
2.089899e+01
4.314148e+01
1.212759e+01
3.822656e+01
1.005694e+02
1.663438e+02
1.973762e+02
1.616913e+02
1.886250e+02
2.485450e+02
3.012057e+02
3.150599e+02
2.677502e+02
2.721181e+02
3.079051e+02
3.457667e+02
3.434279e+02
2.752113e+02
2.686416e+02
2.959970e+02
3.172702e+02
3.036965e+02
2.324627e+02
2.180583e+02
2.376967e+02
2.626754e+02
2.509352e+02
1.777865e+02
1.697567e+02
2.012257e+02
2.288985e+02
2.252646e+02
1.641299e+02
1.603992e+02
1.888679e+02
2.231386e+02
2.177460e+02
1.500620e+02
1.446229e+02
1.776353e+02
2.030829e+02
1.940515e+02
1.237049e+02
1.094414e+02
1.224190e+02
1.399310e+02
1.167337e+02
3.011371e+01
3.607269e+00
1.759476e+01
2.379095e+01
-3.360992e+00
-9.003690e+01
-1.182813e+02
-1.163068e+02
-1.075769e+02
-1.374169e+02
-2.283279e+02
-2.548260e+02
-2.405845e+02
-2.305123e+02
-2.484774e+02
-3.232375e+02
-3.383033e+02
-3.175207e+02
-2.876043e+02
-2.956146e+02
-3.602482e+02
-3.590842e+02
-3.168093e+02
-2.787252e+02
-2.672937e+02
-3.147103e+02
-3.012764e+02
-2.544349e+02
-2.015232e+02
-1.878934e+02
-2.351670e+02
-2.209869e+02
-1.703577e+02
-1.262344e+02
-1.163787e+02
-1.685323e+02
-1.653203e+02
-1.307513e+02
-9.442456e+01
-9.835669e+01
-1.652214e+02
-1.705402e+02
-1.410163e+02
-1.157527e+02
-1.252021e+02
-1.945479e+02
-2.049340e+02
-1.797422e+02
-1.511746e+02
-1.565768e+02
-2.206737e+02
-2.210636e+02
-1.837239e+02
-1.464939e+02
-1.422983e+02
-1.961564e+02
-1.907675e+02
-1.511870e+02
-1.090334e+02
-1.034958e+02
-1.594163e+02
-1.544597e+02
-1.134182e+02
-7.634741e+01
-7.271527e+01
-1.288738e+02
-1.250490e+02
-8.654700e+01
-4.251913e+01
-3.225784e+01
-7.954550e+01
-6.289816e+01
-2.051056e+00
6.210382e+01
9.783936e+01
8.217502e+01
1.354082e+02
2.275793e+02
3.280991e+02
4.008973e+02
4.159810e+02
4.936641e+02
6.120984e+02
7.301473e+02
8.083407e+02
8.271341e+02
9.012020e+02
1.000057e+03
1.089458e+03
1.135170e+03
1.102341e+03
1.115371e+03
1.151227e+03
1.170194e+03
1.134658e+03
1.028631e+03
9.666160e+02
9.216882e+02
8.644557e+02
7.631239e+02
5.859123e+02
4.624442e+02
3.730498e+02
2.789444e+02
1.479989e+02
-3.414526e+01
-1.533534e+02
-2.339168e+02
-3.018589e+02
-3.941450e+02
-5.425024e+02
-6.143439e+02
-6.356103e+02
-6.469286e+02
-6.799408e+02
-7.537422e+02
-7.598869e+02
-7.206121e+02
-6.704555e+02
-6.474506e+02
-6.868257e+02
-6.572880e+02
-5.918561e+02
-5.267981e+02
-5.006435e+02
-5.301519e+02
-5.106347e+02
-4.606829e+02
-4.176785e+02
-4.149327e+02
-4.884174e+02
-5.026582e+02
-4.916084e+02
-4.869201e+02
-5.251484e+02
-6.201210e+02
-6.651266e+02
-6.728579e+02
-6.785098e+02
-7.157179e+02
-8.149842e+02
-8.404154e+02
-8.234153e+02
-7.986873e+02
-7.973032e+02
-8.375055e+02
-8.101816e+02
-7.335925e+02
-6.400208e+02
-5.697394e+02
-5.527632e+02
-4.579142e+02
-3.194676e+02
-1.777040e+02
-6.478580e+01
-5.382751e+00
1.074084e+02
2.549948e+02
4.021318e+02
5.043664e+02
5.341198e+02
6.194224e+02
7.251953e+02
8.130072e+02
8.553016e+02
8.235003e+02
8.325588e+02
8.641648e+02
8.863463e+02
8.572693e+02
7.573851e+02
7.127060e+02
6.957921e+02
6.723178e+02
6.142187e+02
4.969082e+02
4.392631e+02
4.208067e+02
4.123232e+02
3.731318e+02
2.804816e+02
2.598753e+02
2.846386e+02
3.126357e+02
3.173771e+02
2.682256e+02
2.836379e+02
3.369801e+02
3.996071e+02
4.229125e+02
3.867964e+02
4.091707e+02
4.648413e+02
5.086115e+02
5.144445e+02
4.512011e+02
4.370264e+02
4.439860e+02
4.464226e+02
3.982572e+02
2.787749e+02
2.114880e+02
1.729602e+02
1.222997e+02
3.328061e+01
-1.202006e+02
-2.190209e+02
-2.841234e+02
-3.435778e+02
-4.383654e+02
-5.879953e+02
-6.668528e+02
-7.004291e+02
-7.264782e+02
-7.717345e+02
-8.630006e+02
-8.808900e+02
-8.491951e+02
-7.985031e+02
-7.720380e+02
-7.926311e+02
-7.398822e+02
-6.375283e+02
-5.288988e+02
-4.445114e+02
-4.117315e+02
-3.149387e+02
-1.835084e+02
-4.885971e+01
4.760245e+01
7.507776e+01
1.578239e+02
2.699314e+02
3.674558e+02
4.196018e+02
4.033796e+02
4.330660e+02
4.837420e+02
5.267849e+02
5.212338e+02
4.422236e+02
4.151263e+02
4.163219e+02
4.067174e+02
3.580701e+02
2.490700e+02
1.975018e+02
1.791021e+02
1.666799e+02
1.200668e+02
1.262122e+01
-2.831546e+01
-2.864365e+01
-2.907428e+01
-5.840363e+01
-1.405150e+02
-1.600630e+02
-1.400783e+02
-1.121349e+02
-1.193022e+02
-1.874005e+02
-1.921108e+02
-1.622164e+02
-1.387881e+02
-1.472479e+02
-2.149398e+02
-2.261466e+02
-2.041675e+02
-1.761608e+02
-1.884386e+02
-2.646245e+02
-2.782897e+02
-2.552895e+02
-2.384197e+02
-2.524225e+02
-3.211674e+02
-3.303204e+02
-3.027822e+02
-2.660559e+02
-2.652062e+02
-3.251374e+02
-3.185147e+02
-2.731055e+02
-2.310179e+02
-2.206913e+02
-2.655076e+02
-2.537927e+02
-2.060313e+02
-1.524577e+02
-1.363076e+02
-1.824046e+02
-1.654871e+02
-1.135086e+02
-6.727005e+01
-5.439951e+01
-9.990454e+01
-8.854486e+01
-4.127667e+01
1.039246e+01
2.664380e+01
-1.846762e+01
1.365814e+00
5.840234e+01
1.125604e+02
1.356429e+02
1.021433e+02
1.257803e+02
1.861058e+02
2.508390e+02
2.779351e+02
2.434551e+02
2.726898e+02
3.355603e+02
3.941304e+02
4.169288e+02
3.788005e+02
3.939527e+02
4.413588e+02
4.874435e+02
4.944419e+02
4.352982e+02
4.363803e+02
4.699696e+02
4.988937e+02
4.901270e+02
4.202574e+02
4.060634e+02
4.252011e+02
4.424272e+02
4.238617e+02
3.426062e+02
3.221545e+02
3.356525e+02
3.492379e+02
3.264448e+02
2.441085e+02
2.196821e+02
2.302440e+02
2.402081e+02
2.167143e+02
1.307091e+02
1.076695e+02
1.187990e+02
1.300283e+02
1.051575e+02
2.264569e+01
-1.657196e+00
9.859283e+00
2.293289e+01
5.661011e-01
-8.405527e+01
-1.055204e+02
-9.170886e+01
-7.842087e+01
-9.916724e+01
-1.770326e+02
-1.986049e+02
-1.847482e+02
-1.690515e+02
-1.913007e+02
-2.774849e+02
-3.001322e+02
-2.878727e+02
-2.789160e+02
-3.043130e+02
-3.865107e+02
-4.117218e+02
-4.011940e+02
-3.871852e+02
-4.066959e+02
-4.895984e+02
-5.063698e+02
-4.838552e+02
-4.610224e+02
-4.703418e+02
-5.298495e+02
-5.291771e+02
-4.892282e+02
-4.418069e+02
-4.257173e+02
-4.728514e+02
-4.518417e+02
-3.915739e+02
-3.345360e+02
-3.118183e+02
-3.418495e+02
-3.168840e+02
-2.593836e+02
-1.970308e+02